ENTRY            33003   20070807              20080124       3124
SUBENT        33003001   20070807              20080124       3124
BIB                 12         81
TITLE      Fission Yields in the Thermal Neutron Fission of
             233-U, 235-U, 239-Pu and 241-Pu
AUTHOR     (S.A.Chitambar,H.C.Jain,M.V.Ramaniah)
INSTITUTE  (3INDTRM)
REFERENCE  (J,RCA,42,169,1987)
DETECTOR   (GELI) For the gamma spectrometric measurements, the
           catcher foils were mounted and counted in a fixed
           geometry of Ge(Li)detector coupled to a multichannel
           analyser.
           (PROPC) The radiochemical measurement was followed on
           an end window gas flow beta proportional counter.
FACILITY   (REAC) Target assembly for mass spectrometric
           analysis was irradiated for a period of 15,30,and 90
           days in the natural uranium heavy water moderated
           Cirus reactor with a neutron flux of 10**12 n/cm2/s.
           Target assemblies were irradiated for a period of 10 to
           24 hours in the same irradiation position of the
           reactor Cirus and were analysed by gamma ray
           spectrometric technique or radiochemical separation
           followed by beta counting.
           (SPECM) Mass spectreometric isotope measurements were
           done using CH-5 and MAT-261 thermal ionization
           mass spectrometer.
SAMPLE     Purified solution of 233-U (99.20 atom% 233-U),
           235-U (93.33 atom% 235-U), 239-Pu (97.36 atom% 239-Pu)
           and 241-Pu (78.37 atom% 241-Pu and 5.20 atom% 239-Pu)
           were used in the experiment.
           For gamma spectrometric method 10 microgm target
           nuclide was electrodeposited on platinum as backing
           material. Aluminium catcher foils of 0.025 mm
           thickness were placed on the target. The target and
           the catcher foil were wrapped in another superpure
           aluminium foil.
           For radiochemical method 30 microgm target nuclide was
           evaporated on 0.025 mm thick superpure aluminiuma foil.
           This was wrapped in another superpure aluminium foil.
           For analyses using mass spectrometry, 0.5 to 1 mg of
           target nuclide was evaporated in thin walled quartz
           ampoule. Each sealed ampoule was wrapped in superpure
           aluminium foil.
METHOD     (ACTIV) The absolute yields of fission products were
           determined using radiochemical, gamma ray spectrometric
           and mass spectrometric techiniques.
           (GSPEC) For the gamma spectrometric measurements the
           catcher foils were mounted and counted in a fixed
           geometry on a Ge(Li) detector coupled to a multichannel
           analyser. The system had a resolution of 2.2 keV
           at 660 keV. The fission product activity was followed
           for its decay. The photopeak area was obtained by
           subtraction of linear component from the sum of channel
           contents defining the peak.
           (RCHEM) The radiochemical separations of the fission
           products 89,91-Sr, 97-Zr, 99-Mo, 111,112,113-Ag,
           115-Cd, 121-Sn, 123-Sn, 125-Sn, 127-Sb and 140-Ba were
           carried out using standard radiochemical procedures and
           measurement of their activities were carried out using
           end window gas flow beta proportional counter.
           (MASSP) For mass spectrometric determinations the
           sample in quartz ampoule was dissolved after a cooling
           period of 2 months to 1 year. Isotopic ratios were
           determined using CH-5 and MAT-261 thermal ionisation
           mass spectrometers after chemical treatment.
           Preferential evaporation and ionisation technique was
           used for sequential determination of isotopic ratios of
           Rb, Cs, Ba, Sr, Ce, Eu, Nd and Zr from the same
           filament loading. Mo and Ru isotope ratios were
           determined after purification from Zr as well as other
           fission products.
INC-SPECT  Thermal neutron spectra
ERR-ANALYS The estimated uncertainties on the fission yield values
           determined using the mass spectrometrc method are 1-3%.
           Those determined using gamma ray spectrometric
           technique and radiochemical methods have an
           uncertainties of about 4% on the fission yield values
           in asymmetric region and upto 12% in the symmetric
           region.
STATUS     (TABLE) Data from the tables of this paper
           (APRVD) Entry approved by the author Dr. S.A.Chitabar
                   on 16.08.2007
HISTORY    (20070807C) Compiled by Nirupama N. Mirashi,
           Sarbjit Singh, H.Naik and S. Ganesan.
ENDBIB              81
NOCOMMON             0          0
ENDSUBENT           84
SUBENT        33003002   20070807              20080124       3124
BIB                  2          4
REACTION   (92-U-233(N,F)ELEM/MASS,CUM,FY)
FLAG       (1.) Radiochemical Separation
           (2.) Gamma Spectrometry
           (3.) Mass spectrometry
ENDBIB               4
COMMON               1          3
EN
MEV
0.0253
ENDCOMMON            3
DATA                 5         48
ELEMENT    MASS       DATA       ERR-S      FLAG
NO-DIM     NO-DIM     PC/FIS     PC/FIS     NO-DIM
38.        88.        5.46       0.07       3.
38.        89.        6.39       0.16       3.
38.        89.        6.25       0.15       1.
38.        90.        6.66       0.11       3.
38.        91.        6.68       0.18       1.
40.        91.        6.31       0.09       3.
40.        92.        6.47       0.08       3.
40.        93.        6.97       0.09       3.
40.        94.        6.90       0.07       3.
40.        95.        6.43       0.07       3.
40.        95.        6.45       0.14       2.
40.        96.        5.81       0.08       3.
40.        97.        5.95       0.12       1.
42.        95.        6.35       0.09       3.
42.        97.        5.52       0.06       3.
42.        98.        5.21       0.05       3.
42.        99.        5.15       0.13       2.
42.        99.        5.02       0.12       1.
42.        100.       4.56       0.04       3.
44.        101.       3.18       0.04       3.
44.        102.       2.39       0.04       3.
44.        103.       1.53       0.09       2.
44.        104.       0.99       0.01       3.
47.        111.       0.0298     0.0020     1.
47.        112.       0.0124     0.0013     1.
47.        113.       0.0216     0.0016     1.
48.        115.       0.0249     0.0028     1.
50.        121.       0.0212     0.0016     1.
50.        123.       0.0109     0.0013     1.
50.        125.       0.101      0.003      1.
52.        132.       4.95       0.09       2.
53.        131.       3.62       0.09       2.
53.        133.       6.14       0.14       2.
54.        135.       5.85       0.14       2.
55.        133.       6.05       0.06       3.
55.        137.       6.84       0.12       3.
56.        140.       6.53       0.09       2.
58.        141.       6.80       0.18       2.
58.        142.       6.79       0.06       3.
58.        143.       6.03       0.19       2.
58.        144.       4.74       0.11       2.
60.        143.       5.88       0.05       3.
60.        144.       4.78       0.05       3.
60.        145.       3.41       0.04       3.
60.        146.       2.55       0.03       3.
60.        147.       1.71       0.05       2.
60.        148.       1.293      0.013      3.
60.        150.       0.495      0.005      3.
ENDDATA             50
ENDSUBENT           63
SUBENT        33003003   20070807              20080124       3124
BIB                  3          7
REACTION   (92-U-235(N,F)ELEM/MASS,CUM,FY)
FLAG       (1.) Radiochemical Separation
           (2.) Gamma Spectrometry
           (3.) Mass spectrometry
COMMENT    There is a mistake in the published paper regarding
           133-Cs. It is wrongly typed as 133-Ce in the journal
           paper. (Table 2 page 173)
ENDBIB               7
COMMON               1          3
EN
MEV
0.0253
ENDCOMMON            3
DATA                 5         46
ELEMENT    MASS       DATA       ERR-S      FLAG
NO-DIM     NO-DIM     PC/FIS     PC/FIS     NO-DIM
38.        88.        3.57       0.02       3.
38.        89.        4.79       0.05       1.
38.        90.        5.85       0.11       3.
38.        91.        5.93       0.06       1.
40.        91.        5.67       0.03       3.
40.        92.        6.08       0.05       3.
40.        93.        6.36       0.04       3.
40.        94.        6.61       0.06       3.
40.        95.        6.52       0.06       2.
40.        96.        6.42       0.06       3.
40.        97.        5.95       0.04       1.
42.        95.        6.52       0.06       3.
42.        97.        6.09       0.05       3.
42.        98.        5.84       0.04       3.
42.        99.        6.11       0.06       1.
42.        100.       6.40       0.06       3.
44.        101.       5.18       0.05       3.
44.        102.       4.23       0.05       3.
44.        103.       3.03       0.03       2.
44.        104.       1.86       0.03       3.
47.        111.       0.0191     0.0008     1.
47.        112.       0.0129     0.0008     1.
47.        113.       0.0150     0.0009     1.
48.        115.       0.0106     0.0008     1.
50.        121.       0.0129     0.0008     1.
50.        123.       0.0157     0.0006     1.
50.        125.       0.029      0.001      1.
50.        127.       0.126      0.005      1.
52.        132.       4.31       0.01       2.
53.        131.       2.89       0.01       2.
53.        133.       6.70       0.02       2.
54.        135.       6.54       0.02       2.
55.        133.       6.70       0.02       3.
55.        137.       6.20       0.06       3.
56.        140.       6.196      0.043      1.
58.        141.       5.82       0.04       2.
58.        142.       5.83       0.04       3.
58.        143.       5.96       0.02       2.
58.        144.       5.49       0.03       2.
60.        143.       5.89       0.05       3.
60.        144.       5.57       0.05       3.
60.        145.       3.88       0.03       3.
60.        146.       2.99       0.03       3.
60.        147.       2.26       0.02       2.
60.        148.       1.674      0.006      3.
60.        150.       0.646      0.007      3.
ENDDATA             48
ENDSUBENT           64
SUBENT        33003004   20070807              20080124       3124
BIB                  2          4
REACTION   (94-PU-239(N,F)ELEM/MASS,CUM,FY)
FLAG       (1.) Radiochemical Separation
           (2.) Gamma Spectrometry
           (3.) Mass spectrometry
ENDBIB               4
COMMON               1          3
EN
MEV
0.0253
ENDCOMMON            3
DATA                 5         44
ELEMENT    MASS       DATA       ERR-S      FLAG
NO-DIM     NO-DIM     PC/FIS     PC/FIS     NO-DIM
38.        88.        1.36       0.03       3.
38.        89.        1.75       0.04       1.
38.        90.        2.15       0.04       3.
38.        91.        2.38       0.05       1.
40.        91.        2.40       0.02       3.
40.        92.        3.08       0.02       3.
40.        93.        3.91       0.07       3.
40.        94.        4.50       0.03       3.
40.        95.        4.95       0.11       2.
40.        96.        5.04       0.08       3.
40.        97.        5.29       0.15       1.
42.        95.        4.95       0.10       3.
42.        97.        5.74       0.05       3.
42.        97.        6.63       0.10       3.
42.        99.        6.29       0.15       2.
42.        99.        6.13       0.15       1.
42.        100.       7.82       0.10       3.
44.        101.       5.95       0.06       3.
44.        102.       6.01       0.06       3.
44.        103.       7.40       0.21       2.
44.        104.       6.07       0.06       3.
47.        111.       0.311      0.015      1.
47.        112.       0.109      0.008      1.
47.        113.       0.0929     0.012      1.
48.        115.       0.0405     0.004      1.
51.        127.       0.692      0.033      1.
52.        132.       5.72       0.12       2.
53.        131.       4.29       0.13       2.
53.        133.       7.13       0.12       2.
54.        135.       7.59       0.11       2.
55.        133.       7.00       0.03       3.
55.        137.       6.59       0.06       3.
56.        140.       5.41       0.05       2.
58.        141.       5.23       0.10       2.
58.        142.       5.00       0.04       3.
58.        143.       4.58       0.10       2.
58.        144.       3.74       0.09       2.
60.        143.       4.33       0.03       3.
60.        144.       3.72       0.03       3.
60.        145.       2.95       0.03       3.
60.        146.       2.43       0.02       3.
60.        147.       1.83       0.06       2.
60.        148.       1.640      0.008      3.
60.        150.       0.968      0.008      3.
ENDDATA             46
ENDSUBENT           59
SUBENT        33003005   20070807              20080124       3124
BIB                  2          4
REACTION   (94-PU-241(N,F)ELEM/MASS,CUM,FY)
FLAG       (1.) Radiochemical Separation
           (2.) Gamma Spectrometry
           (3.) Mass spectrometry
ENDBIB               4
COMMON               1          3
EN
MEV
0.0253
ENDCOMMON            3
DATA                 5         53
ELEMENT    MASS       DATA       ERR-S      FLAG
NO-DIM     NO-DIM     PC/FIS     PC/FIS     NO-DIM
38.        88.        0.978      0.02       3.
38.        88.        1.02       0.02       3.
38.        89.        1.27       0.04       1.
38.        90.        1.51       0.03       3.
38.        90.        1.54       0.03       3.
38.        91.        1.90       0.05       1.
40.        91.        1.87       0.02       3.
40.        92.        2.31       0.02       3.
40.        93.        2.98       0.06       3.
40.        94.        3.37       0.03       3.
40.        95.        3.95       0.12       2.
40.        96.        4.38       0.06       3.
40.        97.        4.86       0.11       1.
40.        97.        5.04       0.08       3.
42.        95.        3.97       0.08       3.
42.        98.        5.20       0.08       3.
42.        99.        5.72       0.17       2.
42.        99.        5.49       0.11       1.
42.        100.       7.07       0.08       3.
44.        101.       6.28       0.12       3.
44.        102.       6.78       0.13       3.
44.        103.       7.03       0.17       2.
44.        104.       7.47       0.12       3.
47.        111.       0.68       0.02       1.
47.        112.       0.182      0.007      1.
47.        113.       0.105      0.012      1.
48.        115.       0.0278     0.003      1.
50.        121.       0.0112     0.0012     1.
50.        123.       0.0206     0.0014     1.
50.        125.       0.0343     0.0027     1.
51.        127.       0.312      0.011      1.
52.        132.       4.55       0.08       2.
53.        131.       3.21       0.08       2.
53.        133.       6.70       0.12       2.
54.        135.       7.68       0.18       2.
55.        133.       6.81       0.06       3.
55.        137.       6.61       0.06       3.
55.        137.       6.70       0.06       3.
56.        138.       6.64       0.06       3.
56.        140.       5.69       0.10       1.
58.        140.       5.73       0.06       3.
58.        141.       5.02       0.11       2.
58.        142.       4.68       0.04       3.
58.        142.       4.71       0.04       3.
58.        143.       4.48       0.11       2.
58.        144.       4.23       0.10       2.
60.        143.       4.55       0.04       3.
60.        144.       4.32       0.04       3.
60.        145.       3.26       0.04       3.
60.        146.       2.74       0.02       3.
60.        147.       2.24       0.08       2.
60.        148.       1.93       0.02       3.
60.        150.       1.20       0.01       3.
ENDDATA             55
ENDSUBENT           68
ENDENTRY             5
