ENTRY            C0078   20111120   20120210   20120207       C113
SUBENT        C0078001   20111120   20120210   20120207       C113
BIB                 14         44
INSTITUTE  (1CANMNA)
REFERENCE  (J,NP/A,167,57,1971)
AUTHOR     (K.H.Bray,K.S.Jayaraman,G.A.Moss,W.T.H.van Oers,
           D.O.Wells,Y.L.Wu)
TITLE      Elastic scattering of protons from 40Ca at 21.0, 23.5,
            26.3, and 48.0 MeV
FACILITY   (CYCLO,1CANMNA) Momentum-analyzed beam facility of
            sector-focused cyclotron.
SAMPLE     (20-CA-40,ENR=0.9997) Two calcium metal targets with
            areal densities of 4.95+-0.05  and 5.09+-0.05 mg/cm2
            thick enriched to 99.97% 40Ca. Oxygen contamination
            of targets 0.24 and 0.087 mg/cm2.
METHOD     (BCINT) Incident beam monitored using Faraday cup.
           Cross-over technique used for energy and angle
            calibration.
DETECTOR   (SILI) Two Si(Li) detectors at 3 lower energies.
           (TELES,SILI,SIBAR) At 48 MeV, detector telescope
            consisting of a surface-barrier detector and 3 stacked
            Si(Li) detectors.
           (NAICR) NaI(Tl) detectors placed either side of scatter
            chamber to monitor beam and allow adjustments to
            ensure particles passed through chamber.
ANALYSIS   At angles smaller than 30 degrees, where 40Ca and 16O
            elastic scattering peaks merge, Gaussian peak
            stripping routine, or, when 2 peaks became
            indistinguishable, subtraction of calculated 16O
            yield, used to determine 40Ca yield.
MONITOR    No information.
CORRECTION Corrected for:
           . background,
           . dead time
           . finite geometry,
           . scattering in silicon detectors.
           . scattering by contaminants (mainly oxygen),         C
           . nominal scattering angle.
ERR-ANALYS (ERR-T) Absolute uncertainty, largest contributions
             are uncertainty in solid angle determination and in
             beam current integration.
STATUS     (TABLE) Data received from B. Clark, 1997/4/11.
           No reply to author proof, 1997/10/3.
HISTORY    (19970716C)
           (20040310A) Updated to new date formats.
           (20111120A) SD: Subent 2: data set data set at 48. MeV
               was added from C0069002 according to experiment.
ENDBIB              44
COMMON               2          3
EN-ERR     EN-RSL-FW
KEV        KEV
 150.       200.
ENDCOMMON            3
ENDSUBENT           51
SUBENT        C0078002   20111120   20120210   20120207       C113
BIB                  2          3
REACTION   (20-CA-40(P,EL)20-CA-40,,DA)
HISTORY    (20111120A) SD: data set at 48. MeV was added from
               C0069002 according to experiment.
ENDBIB               3
NOCOMMON             0          0
DATA                 4        229
EN         ANG-CM     DATA-CM    ERR-T
MEV        ADEG       MB/SR      MB/SR
 21.        15.4       2.7860E+03 8.9152E+01
 21.        18.3       1.5070E+03 3.4661E+01
 21.        19.4       1.3500E+03 3.2400E+01
 21.        20.5       1.0030E+03 3.4102E+01
 21.        22.6       7.2420E+02 1.8105E+01
 21.        25.1       4.1960E+02 1.4266E+01
 21.        26.0       3.2040E+02 1.2496E+01
 21.        28.5       1.7870E+02 6.9693E+00
 21.        29.6       1.1790E+02 5.0697E+00
 21.        30.7       8.9510E+01 4.0280E+00
 21.        31.1       8.0730E+01 2.9870E+00
 21.        32.8       4.2200E+01 2.2788E+00
 21.        35.4       1.7360E+01 6.7700E-01
 21.        38.4       1.8540E+01 1.6686E+00
 21.        40.9       3.6580E+01 1.7193E+00
 21.        43.1       6.1600E+01 1.6632E+00
 21.        46.2       8.3460E+01 3.7557E+00
 21.        48.6       9.4860E+01 2.8458E+00
 21.        51.1       9.9540E+01 2.4885E+00
 21.        53.2       1.0330E+02 1.5495E+00
 21.        53.7       9.9100E+01 1.3874E+00
 21.        56.2       9.1880E+01 1.1944E+00
 21.        58.7       7.9290E+01 1.1894E+00
 21.        61.3       6.8100E+01 1.0896E+00
 21.        65.8       4.1400E+01 8.2800E-01
 21.        68.4       2.9850E+01 6.2680E-01
 21.        70.9       2.0180E+01 6.4580E-01
 21.        73.2       1.3930E+01 3.3430E-01
 21.        75.9       9.7000E+00 2.0370E-01
 21.        78.4       7.8470E+00 1.4120E-01
 21.        81.5       7.7900E+00 1.0130E-01
 21.        84.0       9.5310E+00 1.5250E-01
 21.        86.5       1.1350E+01 1.7020E-01
 21.        89.0       1.2950E+01 1.8130E-01
 21.        91.5       1.4510E+01 1.7410E-01
 21.        94.0       1.5190E+01 7.4430E-01
 21.        96.5       1.5990E+01 2.0790E-01
 21.        99.0       1.5470E+01 2.0110E-01
 21.       101.5       1.5030E+01 1.8040E-01
 21.       103.9       1.2950E+01 1.9420E-01
 21.       106.4       1.1150E+01 1.7840E-01
 21.       108.9       9.4670E+00 1.6090E-01
 21.       111.4       7.4690E+00 1.4190E-01
 21.       113.9       5.7910E+00 1.2160E-01
 21.       116.3       4.1810E+00 1.3800E-01
 21.       118.8       3.1190E+00 9.0500E-02
 21.       121.3       2.2080E+00 5.3000E-02
 21.       123.7       1.7880E+00 3.7500E-02
 21.       126.2       1.5870E+00 3.1700E-02
 21.       128.7       1.6350E+00 1.9600E-02
 21.       131.1       1.7790E+00 3.0200E-02
 21.       136.0       2.3600E+00 4.0100E-02
 21.       140.9       2.9860E+00 5.0800E-02
 21.       145.8       3.0140E+00 4.5200E-02
 21.       150.7       2.7510E+00 4.4000E-02
 21.       155.6       2.8820E+00 4.6100E-02
 21.       160.5       3.1990E+00 3.8400E-02
 21.       165.4       3.5150E+00 5.6200E-02
 21.       170.3       4.8550E+00 8.2500E-02
 23.5       17.8       1.6010E+03 4.3227E+01
 23.5       20.5       1.0060E+03 2.7162E+01
 23.5       23.0       6.0280E+02 1.7481E+01
 23.5       25.6       3.3050E+02 1.2228E+01
 23.5       27.1       1.6760E+02 7.2068E+00
 23.5       30.4       6.5410E+01 3.7938E+00
 23.5       32.9       1.9960E+01 1.3972E+00
 23.5       35.5       1.1370E+01 9.8919E-01
 23.5       38.2       2.5190E+01 1.5870E+00
 23.5       40.6       4.8340E+01 1.5469E+00
 23.5       43.1       8.3690E+01 6.6115E+00
 23.5       44.3       1.0320E+02 3.3024E+00
 23.5       45.7       9.2910E+01 1.6724E+00
 23.5       51.0       1.0310E+02 1.6496E+00
 23.5       53.5       9.6290E+01 1.2518E+00
 23.5       55.9       8.5280E+01 1.1939E+00
 23.5       58.6       7.1100E+01 1.0665E+00
 23.5       61.1       5.6530E+01 1.2437E+00
 23.5       63.8       4.1680E+01 8.3360E-01
 23.5       66.3       2.9980E+01 6.5956E-01
 23.5       68.5       2.2140E+01 4.8708E-01
 23.5       71.3       1.4940E+01 6.8724E-01
 23.5       73.9       1.2360E+01 2.1012E-01
 23.5       76.4       9.4540E+00 1.6072E-01
 23.5       78.9       9.7990E+00 1.4698E-01
 23.5       80.5       1.0500E+01 1.4700E-01
 23.5       84.0       1.1620E+01 1.6268E-01
 23.5       86.5       1.2280E+01 1.7192E-01
 23.5       89.0       1.1630E+01 1.6282E-01
 23.5       91.5       1.2600E+01 1.8900E-01
 23.5       94.0       1.1840E+01 1.7760E-01
 23.5       96.5       1.1480E+01 1.7220E-01
 23.5       99.0       1.0210E+01 1.5315E-01
 23.5      101.5       9.7250E+00 1.2642E-01
 23.5      104.0       8.2990E+00 1.4938E-01
 23.5      106.4       7.0320E+00 1.3361E-01
 23.5      108.9       5.8190E+00 1.1638E-01
 23.5      111.4       4.6560E+00 1.8158E-01
 23.5      113.9       3.1480E+00 7.5552E-02
 23.5      116.3       2.4270E+00 5.0967E-02
 23.5      118.8       2.1740E+00 4.3480E-02
 23.5      121.3       1.7390E+00 4.5214E-02
 23.5      123.7       1.4400E+00 3.3120E-02
 23.5      126.2       1.2410E+00 2.9784E-02
 23.5      128.7       1.1380E+00 2.7312E-02
 23.5      131.1       1.1790E+00 2.8296E-02
 23.5      133.6       1.3540E+00 3.2496E-02
 23.5      136.0       1.4800E+00 6.5120E-02
 23.5      138.5       1.7150E+00 3.7730E-02
 23.5      140.9       1.8940E+00 3.9774E-02
 23.5      143.4       2.0410E+00 4.2861E-02
 23.5      145.8       2.1140E+00 4.4394E-02
 23.5      148.3       2.1550E+00 4.3100E-02
 23.5      150.7       2.0680E+00 4.5496E-02
 23.5      153.2       1.9570E+00 4.3054E-02
 23.5      155.6       1.9020E+00 3.4236E-02
 23.5      158.1       1.7720E+00 3.1896E-02
 23.5      160.5       1.8610E+00 2.4193E-02
 23.5      162.9       1.8810E+00 4.3263E-02
 23.5      165.4       1.9300E+00 3.4740E-02
 23.5      167.8       2.0440E+00 3.6792E-02
 23.5      170.2       2.2130E+00 3.9834E-02
 26.3       15.67      2.3730E+03 6.1700E+01
 26.3       18.2       1.4850E+03 3.8610E+01
 26.3       20.7       9.1420E+02 2.4680E+01
 26.3       22.8       6.4400E+02 1.7390E+01
 26.3       25.4       3.2920E+02 1.2510E+01
 26.3       27.9       1.4580E+02 7.0000E+00
 26.3       30.5       5.2220E+01 3.3900E+00
 26.3       33.0       1.4610E+01 9.2000E-01
 26.3       35.7       1.5990E+01 5.6000E-01
 26.3       38.2       3.7040E+01 1.3710E+00
 26.3       40.7       6.4420E+01 1.6110E+00
 26.3       43.2       8.8320E+01 1.5010E+00
 26.3       45.9       1.0530E+02 1.3700E+00
 26.3       48.6       1.0750E+02 1.2900E+00
 26.3       50.9       1.0290E+02 1.2350E+00
 26.3       53.5       9.0780E+01 1.2710E+00
 26.3       56.0       7.5110E+01 1.2020E+00
 26.3       58.4       5.9570E+01 1.0720E+00
 26.3       60.9       4.3720E+01 1.0490E+00
 26.3       63.5       3.0880E+01 6.7900E-01
 26.3       66.0       2.0950E+01 4.8200E-01
 26.3       68.6       1.4900E+01 2.9800E-01
 26.3       71.1       1.2100E+01 1.9400E-01
 26.3       73.6       1.1090E+01 1.6600E-01
 26.3       76.0       1.1030E+01 1.6550E-01
 26.3       78.6       1.1810E+01 1.7710E-01
 26.3       81.1       1.2280E+01 1.5960E-01
 26.3       83.6       1.2510E+01 1.7510E-01
 26.3       86.1       1.2300E+01 1.7220E-01
 26.3       88.8       1.1560E+01 1.6180E-01
 26.3       91.2       1.0740E+01 2.4700E-01
 26.3       93.6       9.5590E+00 1.5290E-01
 26.3       96.1       8.2360E+00 1.4000E-01
 26.3       99.0       6.8160E+00 1.2950E-01
 26.3      101.2       5.4590E+00 2.0200E-01
 26.3      103.9       4.2430E+00 7.2130E-02
 26.3      106.4       3.6170E+00 6.1480E-02
 26.3      108.9       3.2600E+00 5.5420E-02
 26.3      111.2       2.9600E+00 9.7680E-02
 26.3      116.3       2.4710E+00 3.4590E-02
 26.3      118.8       2.3590E+00 4.4820E-02
 26.3      121.3       2.0410E+00 4.0820E-02
 26.3      123.8       1.7430E+00 3.6800E-02
 26.3      126.2       1.5610E+00 7.6490E-02
 26.3      128.7       1.3030E+00 2.9970E-02
 26.3      131.1       1.1150E+00 3.6800E-02
 26.3      133.6       1.0310E+00 2.4740E-02
 26.3      136.0       1.0230E+00 2.4550E-02
 26.3      138.5       1.0020E+00 2.5050E-02
 26.3      141.0       1.1520E+00 3.2260E-02
 26.3      143.4       1.2290E+00 2.5810E-02
 26.3      145.9       1.4860E+00 2.9720E-02
 26.3      148.3       1.6560E+00 2.9810E-02
 26.3      150.7       1.7890E+00 5.3670E-02
 26.3      153.2       1.9550E+00 5.6700E-02
 26.3      155.6       1.9990E+00 4.8000E-02
 26.3      158.1       2.0860E+00 3.5460E-02
 26.3      160.6       2.0650E+00 3.5050E-02
 26.3      163.0       2.0350E+00 3.4600E-02
 26.3      165.5       1.9770E+00 3.3610E-02
48.0        10.3      5492.       2.0
48.0        14.9      2236.       2.1
48.0        16.0      2166.       2.4
48.0        17.4      1423.       2.3
48.0        20.0       806.1      2.6
48.0        20.5       722.0      2.9
48.0        21.1       700.1      3.0
48.0        22.6       418.8      2.7
48.0        25.1       174.3      2.8
48.0        25.6       154.4      3.2
48.0        26.2       131.0      3.4
48.0        27.7        70.42     2.9
48.0        30.2        44.48     1.9
48.0        30.8        40.58     1.8
48.0        32.8        55.42     2.0
48.0        35.9        68.98     1.2
48.0        41.0        75.05     0.8
48.0        46.1        46.27     2.0
48.0        50.6        18.15     1.2
48.0        51.2        19.98     1.6
48.0        55.6         7.611    2.8
48.0        60.7         6.059    1.2
48.0        61.3         5.825    1.7
48.0        66.4         5.212    1.1
48.0        71.4         4.234    1.2
48.0        76.5         2.386    1.7
48.0        81.5         1.258    1.8
48.0        86.5         0.822    1.2
48.0        91.5         0.711    1.1
48.0        96.5         0.617    1.3
48.0       101.5         0.445    1.9
48.0       106.5         0.270    2.3
48.0       111.4         0.158    2.6
48.0       114.4         0.116    3.5
48.0       117.0         0.093    2.2
48.0       119.4         0.095    2.4
48.0       121.9         0.097    2.3
48.0       124.4         0.104    2.3
48.0       126.2         0.100    2.0
48.0       131.2         0.115    2.0
48.0       136.8         0.078    2.8
48.0       141.5         0.049    3.8
48.0       146.4         0.029    4.5
48.0       151.2         0.023    4.9
48.0       156.3         0.030    4.3
48.0       161.2         0.034    4.1
48.0       166.0         0.030    5.1
48.0       170.8         0.016    5.4
ENDDATA            231
ENDSUBENT          239
ENDENTRY             2
