ENTRY            13900   20040916
SUBENT        13900001   20040916
BIB                 12         20
INSTITUTE  (1USALAS,3CZRUJF,1USAORL,2GERMUN)
REFERENCE  (J,PR/C,69,014312,2004)
AUTHOR     (I.Tomandl,J.Novak,V.Burjan,S.Raman,T.von Egidy,
           H.F.Wirth,U.Koester,W.Schauer,J.W.Starner,E.T.Jurney,
           G.Graw,R.Hertenburger,A.Gollwitzer,B.Valnion,A.Metz)
TITLE      Neutron spectroscopy of 24Na via (d(pol),p) and
            (n,gamma) measurements
FACILITY   (REAC,1USALAS) Omega West rector.
INC-SOURCE (THCOL)
INC-SPECT  Maxwellian spectrum.
DETECTOR   (GE-IN,NAICR) Intrinsic HPGe detector positioned
            inside a NaI(Tl) annulus.
MONITOR    Detector calibrated using annihilation radiation
            energy of 511.000, 2223.253 keV gamma from the
            1H(n,gamma) reaction, and 4945.303 keV for the
            ground state transition in the 12C(n,gamma) reaction.
ANALYSIS   Absolute intensities derived assuming 100% population
            of ground state after capture.
STATUS     No reply from I.Tomandl to author proof.
HISTORY    (20040628C)
ENDBIB              20
COMMON               1          3
EN-DUMMY
EV
  0.0253
ENDCOMMON            3
ENDSUBENT           27
SUBENT        13900002   20040816
BIB                  3          3
REACTION   (11-NA-23(N,G)11-NA-24,,SPC,,MXW)
ERR-ANALYS (DATA-ERR) No information on source of uncertainties.
STATUS     Data taken from Table III in reference.
ENDBIB               3
NOCOMMON             0          0
DATA                 4        240
E          E-ERR      DATA       DATA-ERR
KEV        KEV        PC/REAC    PC/REAC
  91.01      0.03      46.0        1.0
 373.11      0.15       0.015      0.002
 472.23      0.03      92.2        1.2
 499.41      0.03       2.72       0.05
 501.46      0.06       0.58       0.02
 504.61      0.05       0.286      0.010
 551.2       0.3        0.051      0.012
 552.72      0.20       0.104      0.005
 563.20      0.03       1.68       0.02
 592.67      0.15       0.045      0.003
 605.46      0.18       0.035      0.003
 696.69      0.19       0.040      0.003
 702.13      0.16       0.051      0.004
 708.20      0.05       0.22       0.04
 711.97      0.04       0.842      0.010
 773.85      0.14       0.11       0.06
 778.23      0.05       1.154      0.012
 781.39      0.05       3.21       0.03
 783.40      0.22       0.123      0.010
 785.8       0.3        0.035      0.006
 793.86      0.04       0.392      0.007
 813.0       0.5        0.012      0.005
 835.31      0.03       2.14       0.02
 852.36      0.11       0.066      0.004
 869.20      0.03      20.74       0.17
 874.37      0.03      14.59       0.12
 886.76      0.06       0.76       0.02
 992.6       0.5        0.014      0.003
 999.7       0.3        0.022      0.003
1006.01      0.03       0.472      0.007
1012.5       0.5        0.012      0.003
1018.3       0.5        0.013      0.003
1028.40      0.17       0.064      0.005
1041.20      0.05       0.281      0.007
1057.9       0.3        0.025      0.005
1092.22      0.05       0.319      0.007
1095.00      0.08       0.128      0.005
1108.37      0.04       0.030      0.004
1131.7       0.3        0.032      0.005
1142.7       0.7        0.014      0.007
1150.00      0.04       0.983      0.015
1172.1       0.4        0.028      0.004
1218.2       0.5        0.024      0.004
1220.9       0.5        0.021      0.004
1225.0       0.6        0.016      0.004
1229.28      0.05       0.295      0.007
1231.5       0.4        0.038      0.005
1247.43      0.07       0.223      0.007
1282.75      0.03       1.028      0.015
1314.58      0.17       0.060      0.006
1322.29      0.03       1.181      0.012
1337.74      0.03       0.646      0.0010
1344.55      0.03       4.07       0.03
1373.74      0.03       1.54       0.02
1379.2       0.6        0.034      0.015
1477.4       0.5        0.019      0.005
1480.45      0.05       0.341      0.007
1486.14      0.06       0.228      0.006
1504.83      0.05       0.469      0.010
1526.1       0.6        0.017      0.005
1559.25      0.05       0.295      0.007
1562.39      0.04       0.489      0.010
1567.18      0.08       0.101      0.005
1584.17      0.16       0.051      0.005
1620.41      0.04       0.581      0.010
1631.04      0.15       0.172      0.012
1633.10      0.04       1.154      0.012
1636.25      0.03       4.81       0.04
1715.2       0.4        0.021      0.007
1743.21      0.17       0.082      0.007
1767.18      0.24       0.059      0.005
1770.3       0.3        0.062      0.006
1773.17      0.08       0.194      0.007
1809.8       0.4        0.044      0.006
1832.04      0.11       0.158      0.006
1842.17      0.04       0.460      0.010
1847.11      0.17       0.091      0.005
1859.2       0.3        0.072      0.006
1885.42      0.06       0.721      0.015
1898.88      0.03       0.80       0.10
1899.73      0.07       0.80       0.10
1914.37      0.04       1.18       0.17
1928.22      0.04       0.937      0.017
1950.07      0.03       1.735      0.015
2019.86      0.05       0.663      0.012
2025.04      0.03       6.28       0.05
2027.13      0.13       0.76       0.04
2030.22      0.03       4.07       0.04
2048.27      0.24       0.102      0.010
2066.56      0.09       0.252      0.012
2071.48      0.03       1.096      0.017
2087.48      0.14       0.133      0.010
2130.8       0.4        0.038      0.006
2139.4       0.4        0.034      0.007
2208.37      0.03       5.28       0.04
2220.0       0.4        0.17       0.05
2237.48      0.12       0.150      0.007
2242.3       0.5        0.157      0.017
2247.83      0.25       0.082      0.007
2266.7       0.5        0.063      0.010
2279.3       0.4        0.048      0.010
2283.0       0.4        0.087      0.010
2286.62      0.19       0.215      0.012
2313.7       0.7        0.039      0.010
2334.9       0.6        0.022      0.005
2338.02      0.20       0.104      0.010
2341.1       0.6        0.018      0.002
2350.0       0.3        0.073      0.015
2360.94      0.03       1.638      0.017
2397.32      0.07       1.19       0.02
2400.3       0.3        0.249      0.015
2403.42      0.15       0.281      0.012
2414.40      0.03       4.94       0.04
2431.9       0.4        0.080      0.012
2505.39      0.03       3.21       0.03
2513.5       0.4        0.085      0.005
2517.67      0.03      14.13       0.12
2545.9       0.5        0.034      0.006
2555.8       0.3        0.069      0.006
2588.73      0.13       0.242      0.015
2592.10      0.12       0.375      0.015
2595.46      0.05       0.956      0.017
2630.45      0.05       0.569      0.012
2657.8       0.6        0.029      0.007
2702.0       0.5        0.031      0.010
2715.78      0.05       0.576      0.012
2752.23      0.05      11.5
2763.14      0.11       0.43       0.03
2808.35      0.03       3.2        0.3
2849.95      0.09       0.303      0.010
2860.25      0.03       3.58       0.10
2865.27      0.03       0.53       0.07
2865.49      0.02       2.23       0.10
2875.4       0.6        0.019      0.007
2898.9       0.6        0.036      0.007
2903.70      0.04       0.121      0.012
2904.78      0.03       1.07       0.02
2910.8       0.4        0.070      0.010
2940.79      0.05       0.646      0.012
2977.8       0.4        0.121      0.010
2982.00      0.03       2.61       0.04
3016.0       0.3        0.067      0.006
3025.65      0.08       2.03       0.10
3025.89      0.05       0.73       0.07
3088.9       0.4        0.090      0.012
3092.52      0.06       0.31       0.02
3094.80      0.03       0.54       0.06
3096.83      0.03       3.51       0.07
3099.93      0.07       2.64       0.07
3116.89      0.05       0.905      0.015
3168.3       0.3        0.039      0.010
3174.2       0.5        0.036      0.012
3181.54      0.21       0.242      0.015
3184.1       0.6        0.073      0.015
3198.85      0.13       0.191      0.010
3209.32      0.05       0.721      0.015
3214.19      0.04       1.036      0.015
3231.6       0.6        0.024      0.005
3270.81      0.24       0.104      0.007
3277.38      0.05       0.704      0.015
3303.25      0.09       0.223      0.007
3330.93      0.12       0.235      0.010
3343.30      0.12       0.256      0.010
3369.87      0.05       1.55       0.10
3370.12      0.08       1.16       0.10
3409.29      0.07       0.448      0.012
3413.81      0.06       0.813      0.015
3492.9       0.3        0.080      0.007
3504.78      0.04       1.32       0.02
3545.93      0.04       0.941      0.015
3576.7       0.4        0.078      0.010
3587.42      0.04      11.47       0.10
3594.2       0.5        0.056      0.007
3597.4       0.4        0.070      0.007
3627.98      0.21       0.148      0.010
3632.7       0.3        0.102      0.010
3643.54      0.03       1.331      0.002
3698.07      0.13       0.184      0.007
3703.30      0.07       0.404      0.010
3723.45      0.22       0.31       0.02
3734.6       0.5        0.075      0.015
3744.3       0.9        0.034      0.012
3770.7       0.6        0.087      0.010
3866.5       0.6        0.024      0.007
3878.07      0.03       4.31       0.07
3942.8       0.5        0.075      0.012
3969.05      0.12       0.416      0.015
3981.32      0.04      13.38       0.12
3997.44      0.20       0.300      0.015
4055.22      0.11       0.72       0.03
4058.3       0.6        0.053      0.012
4089.27      0.13       0.43       0.02
4107.6       0.7        0.031      0.010
4131.7       0.9        0.024      0.007
4137.11      0.24       0.155      0.015
4187.35      0.03       1.52       0.03
4226.7       0.7        0.036      0.012
4278.8       0.5        0.019      0.007
4361.7       0.9        0.018      0.006
4376.05      0.25       0.106      0.010
4404.4       0.3        0.046      0.007
4445.64      0.08       0.494      0.015
4462.39      0.16       0.140      0.010
4466.89      0.11       0.281      0.012
4481.38      0.15       0.177      0.010
4495.97      0.08       0.407      0.015
4553.5       0.3        0.085      0.010
4571.14      0.05       0.138      0.015
4572.32      0.04       0.087      0.010
4586.91      0.18       0.423      0.010
4628.7       0.5        0.039      0.007
4644.7       0.4        0.058      0.010
4693.1       0.8        0.015      0.005
4725.56      0.06       0.092      0.010
4727.58      0.07       0.024      0.007
4730.74      0.06       0.358      0.015
4775.23      0.18       0.167      0.012
4890.87      0.15       0.305      0.017
4900.3       0.3        0.136      0.012
4904.3       0.4        0.104      0.012
4908.6       0.6        0.036      0.010
4915.0       0.5        0.068      0.010
4982.7       0.7        0.063      0.015
5005.8       0.7        0.048      0.015
5058.7       0.7        0.029      0.010
5073.38      0.10       0.419      0.017
5112.85      0.11       0.53       0.02
5336.9       0.7        0.012      0.005
5445.33      0.12       0.160      0.010
5599.85      0.24       0.121      0.010
5612.12      0.03       0.148      0.015
5614.15      0.03       0.41       0.03
5617.30      0.02       4.02       0.10
5683.8       0.7        0.012      0.005
5703.2       0.3        0.031      0.007
5774.41      0.17       0.235      0.015
5784.4       0.5        0.017      0.007
6295.30      0.06      18.61       0.12
6486.16      0.14       0.41       0.02
6957.6       0.9        0.0027     0.0010
ENDDATA            242
ENDSUBENT          250
ENDENTRY             2
