ENTRY            13947   20041221
SUBENT        13947001   20041221
BIB                 11         31
INSTITUTE  (1USAORL,1USALAS)
           (2SPNSPN) Universitat Autonoma de Barcelona
REFERENCE  (J,PR/C,70,044318,200410)
AUTHOR     (S.Raman,X.Ouyang,M.A.Islam,J.W. tarner,E.T.Jurney,
            J.E Lynn,G.Martinez-Pinedo)
TITLE      Thermal-neutron capture by 58Ni, 59Ni, and 60Ni
FACILITY   (REAC,1USALAS) Los Alamos Omega West Reactor
INC-SOURCE (THCOL) Thermal column.
INC-SPECT  Thermal neutron flux of 6E11 n/s/cm2 with a
            Maxwellian distribution.
DETECTOR   (GE-IN) 30 cm3 coaxial intrinsic Ge detector
            inside a 30 cm long NaI(Tl)
            Compton-suppressed mode: full width at half
            maximum of 1.5, 1.8, 2.3 and 2.9 keV for 0.5, 1.0
            2.0 and 3 MeV
            Pair-spectrometer: full width at half maximum of
            2.5, 3.3, 4.0 and 4.7 keV for 3, 5, 7 and 9 MeV.
MONITOR    Energy calibration of the pair-spectrometer performed
            with melamine C3H6N6. Energy calibration of the
            Compton-suppressed mode performed with the H(n,gamma)
            reaction and annihilation radiation.
           Intensity calibration for the Compton-suppressed mode
            performed with standard radioisotopic sources.
            Intensity calibration for the pair-spectrometer mode
            derived from the 14N(n,gamma) reaction
            The cross sections are normalized to the recommended
            value of 332.6 +/- 0.7 mb for the capture cross
            section on 1H.
STATUS     (COREL,10665002) Capture cross section based on
            measurements together with a 100.0 mg CH2 target.
HISTORY    (20041216C) DR
ENDBIB              31
NOCOMMON             0          0
ENDSUBENT           34
SUBENT        13947002   20041221
BIB                  5          9
REACTION   (28-NI-58(N,G)28-NI-59,PAR,SIG,,MXW)
SAMPLE     120.5 mg of 99.93 % enriched in 58Ni, 58NiO target
ERR-ANALYS (DATA-ERR) No Information given
FLAG       (1.) Deduced from one member of a close doublet from
            level energies obtained by an overall least-squares
            fit excluding this transition
           (2.) Inferred from the measured intensity of the
            3730.11 + 3730.35 doublet
STATUS     (TABLE) Data taken from Table 3.
ENDBIB               9
COMMON               1          3
EN-DUMMY
EV
0.0253
ENDCOMMON            3
DATA                 6        414
E          E-ERR      DATA       DATA-ERR   FLAG       FLAG
KEV        MEV        MB         MB         NO-DIM     NO-DIM
 310.78    0.4           3.02     0.07
 339.37    0.03        221.       5.
 412.96    0.09          0.64     0.06
 423.46    0.03         13.7      0.14
 450.0     0.3           0.28     0.05
 451.58    0.14          0.34     0.05
 454.77    0.10          0.40     0.04
 464.94    0.03       1126.      28.
 538.54    0.04          4.47     0.06
 545.87    0.03          4.47     0.07
 609.2     0.3           0.16     0.04
 723.93    0.07          1.02     0.06
 731.85    0.20          0.31     0.05
 735.2     0.4           0.15     0.05
 759.3     0.3           0.23     0.05
 766.65    0.04          3.58     0.08
 797.03    0.06          0.97     0.05
 801.78    0.15          0.34     0.04
 816.3     0.3           0.29     0.05
 818.1     0.7           0.12     0.05
 822.6     0.3           0.21     0.05
 827.9     0.5           0.16     0.05
 836.48    0.03         12.0      1.3
 840.6     0.3           0.35     0.06
 849.36    0.04          3.4      0.8
 877.94    0.03        325.       3.
 962.00    0.19          0.34     0.05
 998.50    0.03          3.65     0.08
1006.3     0.4           0.22     0.05
1008.9     0.4           0.22     0.05
1031.5     0.3           0.34     0.06
1045.76    0.18          0.59     0.06
1048.8     0.3           0.38     0.06
1051.0     0.6           0.18     0.06
1078.27    0.10          0.87     0.06
1103.2     0.4           0.22     0.05
1113.38    0.06          2.25     0.07
1147.98    0.10          0.64     0.05
1156.1     0.5           0.16     0.04
1158.6     0.3           0.26     0.05
1163.5     0.3           0.38     0.08
1188.77    0.03         76.9      0.8
1210.5     0.4           0.37     0.08
1213.81    0.09          2.95     0.18
1214.7     0.4           0.42     0.15
1226.08    0.03         17.9      0.3
1256.49    0.18          0.55     0.07
1264.18    0.20          0.82     0.09
1269.74    0.03          4.16     0.08
1274.5     0.7           0.28     0.09
1275.9     0.4           0.52     0.13
1301.44    0.03         76.6      0.8
1337.87    0.05          1.68     0.12
1340.28    0.03         27.3      0.3
1379.40    0.19          0.50     0.05
1382.1     0.3           0.32     0.06
1386.8     0.3           0.31     0.06
1395.27    0.03          6.68     0.10
1405.7     0.8           0.17     0.07
1414.2     0.6           0.19     0.07
1434.12    0.16          0.76     0.07
1438.58    0.10          2.03     0.08
1446.85    0.04         14.86     0.16
1449.0     0.4           0.48     0.09
1474.81    0.09          1.38     0.07
1490.6     0.3           0.67     0.11
1492.3     0.4           0.48     0.11
1496.2     0.4           0.27     0.06
1501.84    0.03         21.23     0.22
1513.0     0.4           0.31     0.06
1536.90    0.03         27.3      0.4
1539.5     0.3           0.58     0.08
1545.54    0.11          0.96     0.06
1555.8     0.3           0.59     0.09
1557.7     0.7           0.21     0.08
1567.5     0.6           0.18     0.06
1572.1     0.5           0.23     0.07
1592.06    0.08          1.58     0.08
1599.8     0.6           0.22     0.06
1607.07    0.16          1.21     0.10
1609.0     0.3           0.89     0.11
1613.8     0.4           0.35     0.06
1617.0     0.5           0.29     0.07
1623.49    0.13          0.93     0.07
1663.7     0.8           0.22     0.09
1665.8     0.3           0.55     0.09
1679.73    0.14          4.3      0.4
1688.00    0.14          1.08     0.09
1695.64    0.25          0.78     0.11
1704.67    0.06          4.30     0.13
1717.65    0.21          0.95     0.11
1724.17    0.12          7.43     0.09
1725.33    0.21          4.0      0.8
1728.71    0.07          3.78     0.13
1734.70    0.03         24.0      0.3
1778.92    0.20          0.81     0.08
1782.97    0.10          1.95     0.10
1800.02    0.17          1.37     0.12
1802.0     0.3           0.95     0.13
1812.05    0.14          0.93     0.07
1818.7     0.6           0.32     0.10
1820.6     0.3           0.72     0.09
1827.8     0.5           0.23     0.06
1833.3     0.6           0.22     0.07
1836.97    0.12          1.04     0.09
1851.12    0.17          1.05     0.09
1864.9     0.4           0.50     0.09
1872.2     0.3           0.58     0.09
1880.12    0.05          5.61     0.13
1889.13    0.17          1.88     0.16
1891.0     0.7           0.40     0.14
1901.9     0.3           0.75     0.14
1917.0     0.9           0.19     0.08
1923.4     0.4           0.74     0.13
1937.7     0.3           0.93     0.13
1943.3     0.4           0.73     0.13
1948.3     0.4           1.3      0.2
1949.92    0.3          67.6      1.4
1992.76    0.4          21.21     0.22
2001.93    0.10          2.34     0.12
2015.53    0.03         16.94     0.19
2042.01    0.07          1.03     0.
2050.78    0.15          1.35     0.11
2075.37    0.06          3.44     0.12
2094.05    0.16          1.21     0.09
2112.0     0.3           0.74     0.09
2125.60    0.07          2.50     0.12
2147.77    0.03         17.31     0.20
2154.3     0.4           0.57     0.11
2174.55    0.21          1.13     0.11
2177.3     0.9           0.26     0.09
2242.9     0.5           0.32     0.08
2248.2     0.3           0.51     0.08
2254.68    0.17          0.99     0.08
2258.03    0.13          1.38     0.09
2261.44    0.15          2.42     0.15
2263.35    0.25          1.14     0.17
2267.96    0.11          1.46     0.08
2287.61    0.11          1.25     0.14
2297.0     0.4           0.42     0.10
2303.53    0.05          5.94     0.14
2323.5     0.3           0.54     0.09
2328.7     0.5           0.87     0.25
2330.8     0.4           1.55     0.20
2345.2     0.4           0.45     0.09
2380.4     0.5           0.44     0.08
2384.64    0.04          9.97     0.14
2400.75    0.05          7.97     0.11
2414.86    0.04         18.0      0.3
2421.89    0.06          4.02     0.10
2425.06    0.19          1.06     0.08
2428.53    0.04          9.71     0.02
2437.06    0.06          3.54     0.09
2450.9     0.9           0.23     0.06
2460.2     0.4           0.44     0.04
2465.5     0.4           0.39     0.08
2483.16    0.12          1.41     0.08
2491.3     0.4           0.50     0.08
2497.33    0.06          8.35     0.15
2499.18    0.11          2.54     0.24
2500.6     0.3           1.23     0.15
2505.1     0.5           0.36     0.09
2535.3     0.4           0.76     0.12
2541.30    0.22          1.19     0.12
2545.7     0.4           0.69     0.12
2554.06    0.4          62.6      0.8
2567.89    0.09          3.20     0.14
2574.29    0.21          1.24     0.13
2616.2     0.03          0.97     0.13
2618.6     0.3           1.03     0.13
2626.70    0.19          1.48     0.16
2629.21    0.16          1.76     0.12
2633.38    0.22          1.02     0.11
2636.61    0.22          1.00     0.11
2645.94    0.19          1.51     0.10
2653.90    0.18          1.57     0.12
2662.0     0.3           0.40     0.13
2664.80    0.19          1.19     0.11
2679.6     0.3           0.90     0.12
2684.97    0.5          16.0      0.3
2689.0     0.4           0.86     0.12
2703.78    0.14          1.71     0.11
2716.57    0.10          3.55     0.14
2719.38    0.07          4.89     0.15
2723.2     0.5           0.37     0.09
2727.6     0.3           0.76     0.12
2739.0     0.4           0.61     0.09
2757.59    0.09          2.55     0.12
2763.7     0.4           0.58     0.09
2771.07    0.24          0.82     0.09
2786.5     0.3           0.69     0.09
2808.09    0.05         12.25     0.20
2815.52    0.14          2.14     0.12
2823.1     0.4           0.74     0.11
2833.18    0.11          2.74     0.13
2838.67    0.11          4.03     0.17
2842.07    0.06         67.3      0.7
2852.2     0.4           0.76     0.12
2857.40    0.12          4.67     0.15
2878.22    0.18          1.53     0.18
2892.3     0.5           5.1      0.7
2893.3     0.3          11.7      1.2
2897.50    0.09          4.72     0.17
2911.7     0.8           0.82     0.25
2927.0     0.4           0.54     0.09
2948.3     0.3           1.29     0.11
2951.06    0.15          2.19     0.12
2963.28    0.11          1.21     0.09
2968.5     0.7          12.6      0.3
2976.5     0.9           0.18     0.08
2980.2     0.4           0.60     0.10
2987.5     0.5           0.41     0.10
3003.9     0.9           1.9      0.5
3005.2     0.5           3.0      0.5
3025.63    0.05         17.65     0.20
3029.17    0.20          1.69     0.12
3037.73    0.06          6.53     0.15
3041.60    0.07          6.68     0.14
3045.66    0.17          1.79     0.12
3051.5     0.3           0.83     0.16
3063.85    0.11          2.86     0.13
3072.2     0.4           0.64     0.12
3111.0     0.3           1.06     0.12
3113.0     0.8           0.50     0.16
3125.6     0.6           0.52     0.12
3136.6     0.3           0.99     0.13
3143.78    0.14          3.03     0.15
3156.28    0.16          1.38     0.11
3163.5     0.4           1.12     0.20
3181.45    0.06         15.50     0.11
3184.56    0.25          1.64     0.13
3190.39    0.08          2.84     0.10
3200.54    0.07          4.87     0.12
3214.7     0.4           0.55     0.11
3221.04    0.5          21.5      0.3
3234.2     0.4           0.59     0.11
3244.50    0.09          3.11     0.13
3250.0     0.4           0.70     0.10
3256.63    0.15          1.60     0.10
3262.01    0.18          1.59     0.16
3265.23    0.07          7.75     0.16
3268.8     0.4           0.89     0.12
3289.3     0.4           0.67     0.11
3295.57    0.20          2.35     0.25
3297.0     0.3           4.9      0.6
3303.20    0.16          1.66     0.11
3317.58    0.23          1.09     0.11
3322.7     0.5           0.53     0.11
3334.2     0.6           0.39     0.12
3339.2     0.5           0.46     0.11
3346.62    0.05          9.34     0.14
3367.02    0.06         10.65     0.16
3374.9     0.7           0.60     0.17
3377.34    0.11          2.72     0.18
3381.83    0.06          8.95     0.15
3388.4     0.5           0.97     0.21
3390.6     0.4           1.56     0.20
3393.8     0.5           0.61     0.12
3437.7     0.6           0.44     0.10
3452.08    0.11          1.33     0.13
3496.9     0.6           0.52     0.12
3504.94    0.12          3.28     0.20
3514.05    0.18          2.16     0.18
3525.8     0.8           0.38     0.12
3545.2     0.3           1.38     0.11
3555.47    0.16          2.74     0.20
3562.82    0.07          9.1      0.3
3614.38    0.07          7.4      0.3
3635.2     0.5           0.69     0.15
3667.53    0.18          1.80     0.14
3675.23    0.04         39.4      0.5
3679.2     0.5           1.08     0.16
3685.98    0.15         16.8      0.9
3705.3     0.5           0.55     0.12
3712.07    0.18          2.44     0.20
3719.1     0.6           0.75     0.18
3730.11    0.05          2.0      0.3       1.         2.
3730.35    0.10          2.7      0.3       1.
3734.0     0.9           0.27     0.13
3767.3     0.5           0.80     0.16
3779.94    0.07         10.4      0.3
3787.5     0.4           1.12     0.18
3800.69    0.15          3.05     0.24
3838.1     0.5           0.71     0.16
3853.71    0.16          2.37     0.18
3857.8     0.3           1.36     0.17
3867.15    0.20          2.06     0.19
3879.8     0.6           0.58     0.15
3889.47    0.15          3.06     0.19
3897.7     0.7           0.50     0.15
3905.8     0.7           0.51     0.15
3912.7     0.6           0.49     0.14
3930.06    0.05         16.7      0.4
3937.5     0.8           0.39     0.09
3952.6     0.4           1.11     0.16
3972.64    0.21          1.51     0.17
3989.9     0.4           0.72     0.14
4021.69    0.21          1.73     0.16
4030.26    0.04         20.9      0.4
4049.99    0.05         14.1      0.3
4056.1     0.6           0.56     0.14
4067.4     0.6           0.64     0.15
4071.5     0.4           0.90     0.15
4083.0     0.5           0.74     0.15
4090.6     0.5           0.67     0.14
4119.4     0.9           0.38     0.16
4140.10    0.08         10.0      0.4
4191.04    0.10          4.72     0.19
4216.08    0.20          1.87     0.20
4237.6     0.5           0.76     0.16
4250.6     0.5           1.6      0.3
4253.6     0.4           2.20     0.05
4283.77    0.05         18.5      0.5
4295.9     0.4           0.89     0.15
4305.2     0.3           1.42     0.16
4317.5     0.3           1.17     0.16
4352.4     0.3           2.22     0.19
4375.31    0.19          2.44     0.19
4428.24    0.19          1.70     0.17
4452.3     0.9           0.30     0.12
4466.2     0.6           0.52     0.13
4504.7     0.3           2.33     0.18
4507.9     0.5           0.80     0.25
4604.1     0.7           0.44     0.13
4609.3     0.4           0.66     0.14
4629.7     0.6           0.61     0.14
4646.69    0.09          5.67     0.25
4715.16    0.06         12.0      0.4
4729.8     0.5           0.83     0.15
4746.19    0.10          5.84     0.25
4805.03    0.16          2.96     0.19
4824.1     0.5           1.10     0.18
4841.4     0.6           0.55     0.15
4858.84    0.03         64.2      0.8
4912.1     0.9           0.41     0.15
4919.8     0.3           1.32     0.21
4949.02    0.10         11.7      0.5
4968.6     0.4           1.79     0.23
4977.27    0.08         10.6      0.4
5029.6     0.9           0.38     0.18
5044.9     0.4           1.06     0.17
5068.97    0.13          4.47     0.22
5078.9     0.5           0.94     0.16
5109.37    0.12          4.36     0.21
5113.8     0.9           0.49     0.16
5130.7     0.3           1.40     0.15
5140.3     0.6           0.79     0.15
5145.34    0.10          5.91     0.23
5152.37    0.23          1.87     0.16
5169.2     0.9           0.35     0.14
5224.0     0.4           0.95     0.15
5228.6     0.7           0.40     0.13
5268.79    0.05         12.3      0.4
5277.5     0.5           0.85     0.15
5287.3     0.6           0.84     0.18
5292.7     0.4           1.49     0.19
5312.95    0.04         75.4      0.9
5362.5     0.3           1.93     0.21
5384.6     0.7           0.78     0.23
5409.4     0.6           0.88     0.18
5436.00    0.04          26.3     0.5
5458.79    0.18          3.19     0.22
5469.4     0.6           0.68     0.16
5492.1     0.6           0.68     0.14
5546.8     1.4           2.87     0.17
5553.0     0.4           0.98     0.14
5566.4     0.8           0.61     0.16
5585.2     0.6           0.70     0.14
5617.12    0.18          3.10     0.17
5621.6     0.14          5.29     0.20
5632.4     0.9           0.47     0.15
5641.65    0.25          2.16     0.20
5655.5     0.5           1.18     0.18
5682.5     0.7           0.67     0.16
5701.5     0.4           1.38     0.17
5754.6     0.7           0.86     0.22
5817.35    0.05        151.9      2.0
5843.7     0.7           1.05     0.25
5887.1     0.6           0.94     0.17
5901.6     0.6           0.90     0.18
5935.0     0.9           0.50     0.17
5956.9     0.3           2.5      0.3
5973.14    0.05         36.8      0.8
5994.0     0.4           1.24     0.17
6030.4     0.3           1.73     0.17
6105.38    0.06         98.0      1.4
6111.6     0.4           1.48     0.23
6141.42    0.23          2.37     0.19
6160.0     0.7           0.74     0.16
6258.8     0.3           1.56     0.16
6279.0     0.9           0.38     0.16
6371.2     0.9           0.55     0.16
6391.9     0.5           1.10     0.17
6401.2     0.7           0.77     0.16
6408.0     0.5           1.06     0.17
6499.0     0.8           0.65     0.15
6516.2     0.9           0.43     0.15
6561.7     0.8           0.79     0.22
6576.8     0.6           1.47     0.23
6583.98    0.06        109.4      1.5
6598.15    0.25          3.5      0.3
6617.5     0.9           0.60     0.19
6644.2     0.9           0.44     0.18
6752.6     0.8           0.58     0.16
6872.8     0.8           0.63     0.15
6892.0     0.9           0.46     0.14
6940.3     0.8           0.53     0.15
6947.6     0.4           1.33     0.16
7050.1     0.9           0.43     0.16
7264.18    0.06          9.3      0.3
7697.30    0.06         51.7      0.7
8120.75    0.07        177.       3.
8533.71    0.07        996.      15.
8998.63    0.07       2082.      30.
ENDDATA            416
ENDSUBENT          434
SUBENT        13947003   20041221
BIB                  4          4
REACTION   (28-NI-59(N,G)28-NI-60,PAR,SIG,,MXW)
SAMPLE     30 mg of NiCl with 95.35 % 59Ni
ERR-ANALYS (DATA-ERR) No Information given
STATUS     (TABLE) Data taken from Table 9.
ENDBIB               4
COMMON               1          3
EN-DUMMY
EV
0.0253
ENDCOMMON            3
DATA                 4        390
E          E-ERR      DATA       DATA-ERR
KEV        MEV        B          B
  119.9    0.3         0.033     0.004
  123.65   0.20        0.011     0.002
  139.11   0.17        0.013     0.003
  158.34   0.12        0.016     0.002
  215.16   0.18        0.015     0.003
  216.95   0.25        0.014     0.003
  229.62   0.10        0.027     0.003
  277.38   0.14        0.024     0.003
  305.7    0.3         0.016     0.003
  355.67   0.11        0.026     0.004
  393.76   0.06        0.162     0.004
  431.9    0.4         0.009     0.003
  467.28   0.03        0.71      0.03
  493.3    0.4         0.008     0.003
  497.76   0.04        0.115     0.004
  521.24   0.08        0.118     0.008
  541.0    0.3         0.014     0.003
  555.81   0.19        0.020     0.003
  569.5    0.4         0.009     0.003
  604.62   0.23        0.014     0.003
  642.96   0.05        0.088     0.003
  660.27   0.16        0.019     0.003
  667.4    0.5         0.007     0.003
  672.90   0.06        0.073     0.003
  677.17   0.05        0.137     0.003
  680.42   0.04        0.144     0.003
  693.57   0.11        0.037     0.003
  702.11   0.14        0.025     0.003
  727.07   0.18        0.020     0.003
  739.2    0.3         0.030     0.005
  747.33   0.03        0.818     0.015
  749.7    0.3         0.050     0.006
  751.9    0.4         0.026     0.005
  758.5    0.4         0.020     0.006
  770.3    0.3         0.011     0.003
  805.6    0.4         0.011     0.003
  813.48   0.07        0.068     0.003
  826.11   0.03        6.30      0.12
  839.08   0.19        0.023     0.003
  841.2    0.3         0.016     0.003
  851.9    0.3         0.020     0.003
  853.8    0.4         0.015     0.003
  868.06   0.20        0.022     0.003
  883.1    0.3         0.016     0.003
  896.23   0.06        0.119     0.005
  909.05   0.04        0.601     0.014
  913.63   0.14        0.047     0.004
  952.26   0.03       11.2       0.3
  964.8    0.3         0.022     0.003
  983.9    0.4         0.011     0.003
  993.48   0.03        0.161     0.005
 1005.83   0.10        0.054     0.004
 1027.56   0.04        0.228     0.005
 1035.23   0.03        1.03      0.03
 1064.2    0.4         0.021     0.004
 1091.42   0.09        0.067     0.003
 1110.31   0.09        0.081     0.006
 1113.9    0.3         0.053     0.006
 1154.82   0.12        0.046     0.004
 1159.09   0.13        0.043     0.004
 1173.24   0.03        0.47      0.04
 1194.4    0.5         0.015     0.005
 1234.51   0.07        0.072     0.004
 1244.93   0.22        0.021     0.004
 1248.86   0.15        0.036     0.004
 1293.2    0.9         0.37      0.05
 1296.3    0.4         0.028     0.005
 1306.5    0.5         0.019     0.005
 1308.16   0.25        0.044     0.005
 1332.54   0.03       44.6       0.9
 1354.08   0.09        0.065     0.005
 1358.67   0.18        0.027     0.004
 1380.4    0.3         0.045     0.006
 1381.8    0.3         0.035     0.006
 1385.97   0.14        0.035     0.005
 1392.3    0.5         0.009     0.003
 1399.4    0.4         0.010     0.003
 1404.4    0.3         0.017     0.004
 1419.40   0.10        0.053     0.004
 1424.24   0.04        0.251     0.007
 1429.07   0.03        0.496     0.010
 1434.0    0.3         0.018     0.004
 1451.88   0.16        0.033     0.004
 1472.6    0.6         0.021     0.006
 1474.6    0.3         0.049     0.006
 1485.94   0.19        0.039     0.004
 1491.5    0.3         0.030     0.005
 1497.91   0.25        0.033     0.005
 1510.83   0.21        0.028     0.004
 1532.65   0.12        0.055     0.005
 1562.8    0.3         0.040     0.004
 1564.6    0.7         0.015     0.005
 1568.0    0.5         0.014     0.003
 1575.84   0.13        0.071     0.005
 1585.33   0.13        0.067     0.005
 1592.53   0.04        0.440     0.011
 1606.10   0.14        0.059     0.005
 1621.2    0.5         0.017     0.005
 1628.9    0.4         0.022     0.004
 1632.99   0.18        0.053     0.005
 1636.42   0.13        0.082     0.005
 1643.6    0.4         0.026     0.005
 1684.4    0.3         0.031     0.005
 1692.45   0.08        0.119     0.007
 1712.30   0.09        0.741     0.015
 1734.98   0.11        0.157     0.008
 1741.3    0.5         0.013     0.004
 1766.5    0.3         0.029     0.004
 1786.9    0.3         0.049     0.008
 1791.19   0.3         3.07      0.03
 1813.5    0.5         0.066     0.007
 1816.1    0.5         0.016     0.004
 1829.9    0.4         0.018     0.005
 1853.67   0.07        0.173     0.006
 1861.33   0.03        1.34      0.003
 1878.0    0.4         0.022     0.005
 1881.15   0.12        0.074     0.005
 1888.4    0.3         0.031     0.004
 1919.28   0.07        0.132     0.006
 1936.41   0.06        0.186     0.005
 1985.27   0.03        3.65      0.07
 2028.5    0.5         0.019     0.005
 2040.85   0.19        0.048     0.005
 2060.58   0.03        0.571     0.013
 2152.6    0.3         0.035     0.005
 2158.63   0.03        0.98      0.03
 2176.84   0.04        0.285     0.008
 2198.1    0.4         0.027     0.005
 2245.40   0.15        0.063     0.005
 2255.18   0.05        0.230     0.007
 2263.17   0.04        0.348     0.008
 2282.0    0.3         0.025     0.004
 2311.00   0.18        0.048     0.005
 2317.65   0.20        0.048     0.006
 2320.7    0.4         0.025     0.004
 2334.4    0.3         0.031     0.005
 2341.9    0.4         0.023     0.004
 2375.6    0.3         0.030     0.004
 2389.25   0.05        0.300     0.008
 2392.6    0.3         0.040     0.005
 2401.83   0.03        0.778     0.015
 2418.65   0.20        0.042     0.005
 2478.42   0.07        0.129     0.005
 2488.73   0.10        0.088     0.004
 2493.8    0.3         0.032     0.003
 2496.9    0.3         0.019     0.003
 2517.00   0.09        0.246     0.008
 2525.4    0.3         0.033     0.006
 2538.53   0.04        0.451     0.010
 2547.35   0.21        0.043     0.005
 2554.69   0.10        0.124     0.005
 2572.2    0.4         0.017     0.004
 2578.2    0.5         0.014     0.004
 2586.98   0.12        0.071     0.005
 2593.3    0.4         0.015     0.004
 2601.5    0.4         0.025     0.005
 2607.10   0.22        0.041     0.005
 2613.9    0.3         0.026     0.004
 2620.40   0.08        0.125     0.005
 2627.4    0.3         0.029     0.004
 2633.3    0.3         0.032     0.005
 2673.86   0.04        1.60      0.03
 2684.19   0.12        0.166     0.008
 2687.33   0.04        0.712     0.016
 2707.44   0.08        0.145     0.005
 2721.59   0.25        0.038     0.005
 2745.47   0.06        0.240     0.007
 2749.5    0.4         0.026     0.005
 2770.5    0.3         0.039     0.005
 2779.42   0.14        0.084     0.005
 2785.73   0.14        0.085     0.005
 2797.7    0.5         0.021     0.005
 2822.3    0.3         0.040     0.005
 2831.3    0.6         0.018     0.005
 2846.9    0.5         0.026     0.005
 2874.42   0.19        0.068     0.006
 2883.0    0.4         0.037     0.005
 2907.5    0.3         0.033     0.005
 2938.6    0.4         0.024     0.005
 2985.97   0.07        0.320     0.009
 3002.5    0.4         0.025     0.005
 3022.90   0.20        0.064     0.005
 3027.86   0.16        0.075     0.006
 3040.5    0.4         0.030     0.005
 3046.7    0.7         0.017     0.004
 3058.0    0.7         0.016     0.004
 3062.5    0.5         0.023     0.004
 3101.2    0.6         0.015     0.004
 3123.70   0.05        0.34      0.002
 3129.6    0.3         0.033     0.004
 3160.60   0.06        0.260     0.008
 3167.7    0.4         0.045     0.005
 3193.77   0.04        0.602     0.011
 3215.27   0.08        0.122     0.006
 3233.0    0.3         0.030     0.005
 3244.90   0.09        0.151     0.005
 3264.0    0.5         0.019     0.004
 3268.78   0.12        0.074     0.005
 3276.32   0.20        0.044     0.005
 3288.5    0.3         0.019     0.005
 3296.3    0.3         0.038     0.005
 3302.11   0.24        0.035     0.004
 3352.8    0.4         0.025     0.006
 3354.5    0.4         0.048     0.005
 3359.5    0.4         0.027     0.005
 3369.4    0.4         0.023     0.004
 3393.05   0.20        0.042     0.004
 3426.3    0.5         0.094     0.024
 3428.0    0.4         0.096     0.025
 3436.9    0.3         0.076     0.006
 3440.37   0.17        0.092     0.008
 3446.77   0.17        0.081     0.007
 3453.67   0.11        0.131     0.005
 3487.1    0.4         0.023     0.005
 3495.12   0.16        0.108     0.005
 3511.07   0.18        0.174     0.008
 3513.6    0.3         0.072     0.007
 3517.3    0.3         0.042     0.005
 3551.94   0.14        0.130     0.006
 3569.53   0.13        0.088     0.005
 3589.0    0.3         0.051     0.008
 3596.4    0.4         0.040     0.006
 3603.49   0.07        0.020     0.005
 3620.64   0.14        0.117     0.008
 3625.6    0.4         0.034     0.006
 3632.4    0.6         0.024     0.006
 3641.1    0.4         0.045     0.006
 3658.9    0.3         0.050     0.006
 3697.7    0.6         0.032     0.007
 3700.9    0.9         0.031     0.008
 3703.4    0.8         0.039     0.011
 3732.23   0.22        0.151     0.013
 3743.71   0.13        0.180     0.009
 3794.8    0.4         0.049     0.006
 3817.7    0.5         0.040     0.007
 3836.1    0.5         0.033     0.006
 3870.94   0.07        0.356     0.012
 3892.4    0.5         0.043     0.007
 3895.4    0.5         0.045     0.007
 3913.7    0.3         0.042     0.006
 3939.5    0.4         0.042     0.006
 3955.21   0.06        0.025     0.006
 3973.4    0.5         0.042     0.007
 3983.6    0.4         0.050     0.006
 4006.30   0.04        1.20      0.03
 4019.74   0.05        1.68      0.04
 4021.4    0.5         0.075     0.008
 4048.2    0.4         0.048     0.006
 4066.3    0.3         0.062     0.008
 4071.49   0.22        0.073     0.008
 4077.6    0.9         0.022     0.005
 4080.0    0.7         0.027     0.006
 4111.6    0.8         0.041     0.007
 4114.4    0.6         0.070     0.008
 4164.75   0.11        0.193     0.008
 4168.32   0.19        0.099     0.008
 4180.5    0.7         0.018     0.004
 4204.01   0.07        0.021     0.006
 4255.6    0.6         0.026     0.004
 4279.8    0.4         0.034     0.006
 4305.2    0.6         0.019     0.005
 4318.52   0.11        0.130     0.007
 4331.24   0.15        0.113     0.006
 4335.37   0.23        0.087     0.008
 4338.3    0.3         0.064     0.007
 4348.2    0.4         0.031     0.005
 4356.6    0.3         0.046     0.006
 4370.7    0.5         0.025     0.004
 4377.65   0.13        0.120     0.006
 4390.4    0.3         0.042     0.005
 4430.3    0.4         0.040     0.005
 4475.58   0.10        0.150     0.007
 4487.56   0.25        0.055     0.005
 4492.3    0.6         0.022     0.004
 4507.04   0.18        0.163     0.010
 4545.9    0.5         0.074     0.015
 4548.2    0.3         0.163     0.016
 4553.0    0.3         0.071     0.006
 4577.37   0.14        0.144     0.008
 4617.2    0.4         0.048     0.006
 4631.2    0.5         0.036     0.006
 4639.1    0.6         0.030     0.006
 4678.3    0.5         0.050     0.005
 4683.0    0.5         0.043     0.006
 4693.6    0.5         0.042     0.006
 4740.48   0.12        0.227     0.010
 4744.7    0.5         0.047     0.007
 4760.1    0.4         0.054     0.006
 4819.9    0.6         0.032     0.006
 4843.76   0.09        0.389     0.015
 4871.7    0.8         0.024     0.006
 4898.4    0.4         0.064     0.006
 4906.1    0.5         0.043     0.006
 4922.34   0.25        0.155     0.011
 4950.1    0.5         0.101     0.015
 5005.5    0.7         0.031     0.007
 5025.43   0.25        0.092     0.008
 5046.4    0.7         0.032     0.006
 5059.8    0.6         0.040     0.007
 5064.79   0.07        0.509     0.015
 5097.8    0.6         0.031     0.006
 5132.6    0.5         0.028     0.006
 5148.1    0.3         0.062     0.005
 5152.61   0.25        0.070     0.005
 5157.9    0.9         0.015     0.005
 5173.6    0.3         0.049     0.005
 5184.9    0.5         0.029     0.005
 5193.4    0.3         0.056     0.005
 5234.82   0.10        0.230     0.007
 5245.5    0.5         0.030     0.005
 5254.46   0.14        0.146     0.006
 5287.8    0.7         0.022     0.005
 5292.3    0.9         0.016     0.005
 5299.1    0.5         0.074     0.016
 5306.7    0.4         0.040     0.005
 5320.69   0.18        0.094     0.006
 5393.3    0.3         0.062     0.005
 5407.76   0.13        0.155     0.006
 5419.5    0.6         0.025     0.005
 5452.1    0.5         0.028     0.005
 5468.5    0.6         0.028     0.005
 5472.8    0.5         0.036     0.005
 5485.02   0.08        0.377     0.009
 5509.46   0.11        0.223     0.008
 5527.4    0.5         0.035     0.005
 5578.7    0.6         0.022     0.005
 5611.8    0.4         0.036     0.005
 5640.4    0.7         0.020     0.005
 5659.9    0.8         0.015     0.004
 5676.64   0.04        0.935     0.018
 5710.52   0.10        0.362     0.012
 5714.96   0.18        0.159     0.009
 5723.0    0.5         0.035     0.005
 5759.1    0.7         0.024     0.005
 5775.08   0.06        0.713     0.015
 5875.2    0.7         0.017     0.004
 5886.3    0.7         0.023     0.005
 5889.9    0.5         0.033     0.005
 5911.3    0.8         0.016     0.005
 5933.3    0.7         0.018     0.005
 5940.5    0.3         0.074     0.006
 5944.3    0.5         0.039     0.005
 5952.4    0.5         0.024     0.005
 5967.5    0.8         0.014     0.005
 5983.4    0.5         0.024     0.005
 6003.9    0.7         0.017     0.005
 6067.2    0.8         0.014     0.005
 6099.4    0.3         0.062     0.006
 6162.5    0.6         0.032     0.005
 6260.19   0.20        0.070     0.006
 6322.29   0.11        0.557     0.014
 6351.2    0.4         0.032     0.005
 6382.3    0.5         0.033     0.005
 6434.01   0.10        0.223     0.007
 6458.42   0.18        0.098     0.006
 6464.9    0.3         0.090     0.005
 6543.44   0.18        0.586     0.024
 6608.29   0.15        0.293     0.013
 6627.12   0.19        0.128     0.008
 6809.91   0.09        0.333     0.013
 6839.38   0.12        1.21      0.07
 6894.23   0.11        0.275     0.010
 6911.7    0.3         0.098     0.006
 7032.9    0.7         0.026     0.005
 7051.67   0.12        0.220     0.009
 7068.67   0.08        0.415     0.012
 7275.9    0.9         0.019     0.005
 7309.22   0.14        0.214     0.010
 7367.31   0.05        1.95      0.05
 7380.77   0.04        2.43      0.07
 7473.0    0.8         0.030     0.006
 7499.4    0.4         0.076     0.007
 7516.17   0.04        2.04      0.05
 7652.88   0.08        0.430     0.010
 7689.5    0.5         0.043     0.006
 7761.6    0.8         0.027     0.006
 7799.40   0.06        0.689     0.014
 7915.1    0.9         0.022     0.006
 7951.4    0.8         0.025     0.006
 7993.95   0.10        0.310     0.011
 8069.26   0.04        3.18      0.06
 8117.6    0.9         0.044     0.013
 8193.24   0.04        1.90      0.05
 8200.88   0.17        0.207     0.009
 8263.35   0.05        1.59      0.05
 8504.2    0.9         0.020     0.004
 9102.10   0.04        8.83      0.016
 9228.19   0.09        1.14      0.04
10054.14   0.07        8.22      0.15
11386.50   0.09       21.5       0.8
ENDDATA            392
ENDSUBENT          405
SUBENT        13947004   20041221
BIB                  4          4
REACTION   (28-NI-60(N,G)28-NI-61,PAR,SIG,,MXW)
SAMPLE     200.1 mg of NiO with 99.83 % 60Ni
ERR-ANALYS (DATA-ERR) No Information given
STATUS     (TABLE) Data taken from Table 10.
ENDBIB               4
COMMON               1          3
EN-DUMMY
EV
0.0253
ENDCOMMON            3
DATA                 4        240
E          E-ERR      DATA       DATA-ERR
KEV        MEV        B          B
  67.42    0.20         32.9      0.6
 159.46    0.20          0.18     0.03
 191.16    0.08          0.64     0.05
 215.51    0.09          0.38     0.03
 277.0     0.5           0.37     0.06
 282.99    0.05        812.      27.
 355.85    0.14          0.29     0.03
 373.07    0.05          4.27     0.05
 394.33    0.05          1.77     0.06
 477.6     0.5           0.34     0.07
 514.33    0.14          0.69     0.08
 529.27    0.03          5.37     0.06
 546.3     0.3           0.14     0.04
 588.59    0.05          2.33     0.05
 625.60    0.17          0.30     0.05
 629.86    0.25          0.20     0.04
 650.1     0.4           0.20     0.06
 651.14    0.25          0.50     0.11
 656.02    0.04         20.39     0.22
 701.22    0.11          0.61     0.05
 780.4     0.3           0.21     0.04
 806.0     0.3           0.19     0.06
 816.70    0.04         38.7      0.4
 820.90    0.10          0.87     0.06
 841.2     0.1           1.46     0.07
 848.54    0.13          0.58     0.05
 888.0     0.3           0.23     0.05
 900.2     0.3           0.26     0.05
 902.27    0.01          1.27     0.05
 908.59    0.04          7.66     0.09
 938.62    0.04         16.28     0.17
 947.90    0.09          0.82     0.06
 977.12    0.18          0.30     0.05
 980.81    0.25          0.24     0.05
 982.6     0.4           0.14     0.05
 998.0     0.4           0.14     0.05
1015.28    0.24          0.29     0.06
1021.06    0.08          0.95     0.06
1024.27    0.07          1.22     0.06
1032.25    0.04          6.06     0.09
1039.8     0.3           0.26     0.05
1065.01    0.05          3.29     0.06
1073.52    0.06          1.8      0.6
1089.65    0.22          0.37     0.06
1099.67    0.04         27.6      0.3
1107.71    0.09          0.68     0.06
1116.46    0.25          0.42     0.06
1118.39    0.99          0.69     0.07
1132.40    0.04          5.89     0.09
1146.69    0.16          0.69     0.07
1154.9     0.3           0.41     0.06
1185.29    0.04         52.6      0.6
1188.18    0.12          0.47     0.07
1195.3     0.4           0.24     0.06
1204.2     0.3           0.28     0.05
1215.35    0.05          2.00     0.06
1233.4     0.3           0.42     0.07
1244.39    0.18          0.67     0.07
1253.23    0.20          0.57     0.07
1315.2     0.4           0.20     0.05
1342.3     0.4           0.26     0.06
1377.3     0.4           0.23     0.05
1387.6     0.4           0.21     0.05
1415.43    0.10          0.90     0.07
1434.20    0.23          0.41     0.05
1446.71    0.6           2.08     0.07
1454.80    0.12          0.87     0.06
1488.0     0.3           0.34     0.06
1502.01    0.10          0.77     0.06
1535.60    0.99          0.61     0.08
1542.42    0.07          2.50     0.09
1580.03    0.20          0.46     0.06
1587.77    0.23          0.48     0.06
1601.9     0.4           0.23     0.08
1610.04    0.99          2.04     0.09
1621.86    0.8           2.02     0.09
1633.08    0.20          0.70     0.09
1645.0     0.3           0.35     0.06
1662.17    0.99          2.13     0.07
1665.18    0.99          0.92     0.06
1685.54    0.10          1.13     0.07
1716.46    0.25          0.63     0.08
1721.5     0.5           0.26     0.07
1729.74    0.08          2.03     0.09
1750.9     0.6           0.21     0.06
1760.2     0.4           0.35     0.06
1778.83    0.12          1.09     0.07
1795.61    0.24          0.50     0.07
1819.7     0.6           0.25     0.07
1840.94    0.05          4.78     0.12
1843.87    0.17          1.15     0.09
1864.55    0.18          0.80     0.08
1877.1     0.4           0.39     0.08
1931.2     0.7           0.23     0.06
1943.0     0.5           0.23     0.07
1959.71    0.07          1.77     0.08
1998.10    0.11          1.44     0.10
2012.47    0.22          0.81     0.12
2045.32    0.05          4.76     0.13
2085.7     0.3           0.62     0.09
2088.26    0.25          0.79     0.10
2093.10    0.21          0.81     0.09
2099.27    0.07          3.34     0.10
2108.99    0.18          1.12     0.10
2111.6     0.4           0.47     0.10
2115.2     0.3           0.49     0.11
2123.90    0.03        145.6      1.5
2126.9     0.3           1.19     0.16
2207.0     0.3           0.86     0.14
2229.84    0.20          0.96     0.22
2282.66    0.14          0.70     0.06
2301.3     0.4           0.28     0.06
2306.3     0.5           0.24     0.06
2315.35    0.16          0.82     0.07
2340.56    0.22          0.46     0.06
2347.5     0.4           0.28     0.06
2351.3     0.4           0.30     0.06
2356.6     0.3           0.37     0.06
2387.21    0.14          0.94     0.07
2406.05    0.06          3.24     0.09
2429.15    0.14          1.11     0.08
2432.2     0.4           0.39     0.07
2436.14    0.13          1.34     0.08
2455.5     0.6           0.21     0.06
2460.7     0.4           0.46     0.07
2463.1     0.7           0.25     0.01
2482.07    0.18          1.10     0.15
2483.6     0.7           0.32     0.14
2488.84    0.12          1.16     0.07
2510.0     0.3           0.53     0.01
2575.63    0.14          0.89     0.07
2579.84    0.15          0.91     0.07
2611.73    0.16          1.01     0.08
2620.7     0.5           0.35     0.08
2634.0     0.4           0.38     0.07
2639.44    0.6           3.90     0.09
2644.23    0.22          0.61     0.07
2676.5     0.5           0.30     0.08
2684.58    0.25          0.51     0.08
2698.22    0.22          0.94     0.09
2703.38    0.19          1.25     0.09
2707.58    0.09          2.60     0.11
2759.38    0.19          1.37     0.08
2764.69    0.16          1.60     0.09
2771.4     0.7           0.25     0.08
2778.9     0.4           0.44     0.08
2783.80    0.09          2.41     0.10
2795.39    0.04          0.47     0.08
2802.7     0.4           0.40     0.08
2816.95    0.14          1.45     0.08
2823.07    0.16          1.18     0.09
2856.48    0.13          1.33     0.07
2861.95    0.4           6.59     0.11
2903.0     0.7           0.27     0.11
2914.5     0.7           0.25     0.08
2933.80    0.12          2.96     0.12
2947.5     0.7           0.25     0.07
2977.79    0.25          0.69     0.07
3000.2     0.5           0.36     0.08
3012.66    0.11          2.89     0.10
3027.02    0.18          1.06     0.08
3054.36    0.18          0.92     0.07
3062.16    0.10          1.75     0.08
3077.5     0.3           0.60     0.07
3082.21    0.21          0.78     0.08
3104.6     0.8           0.47     0.15
3106.8     0.4           1.30     0.16
3129.1     0.6           0.43     0.10
3132.05    0.08          5.10     0.13
3144.7     0.7           4.09     0.13
3164.49    0.24          0.84     0.10
3180.8     0.4           0.50     0.11
3213.9     0.3           0.64     0.09
3231.47    0.09          2.38     0.09
3242.59    0.11          1.87     0.09
3254.8     0.06          0.28     0.08
3305.30    0.14          1.62     0.09
3328.6     0.6           0.35     0.08
3347.7     0.4           0.64     0.09
3359.5     0.3           0.38     0.09
3369.1     0.4           0.53     0.08
3380.29    0.21          2.38     0.23
3382.3     0.7           0.80     0.21
3385.92    0.05          9.23     0.13
3391.6     0.3           0.70     0.09
3398.6     0.3           1.16     0.15
3415.04    0.06          5.05     0.11
3525.1     0.9           0.20     0.07
3531.51    0.20          2.00     0.18
3580.18    0.07          9.8      0.3
3583.47    0.14          3.10     0.19
3601.8     0.4           0.64     0.12
3615.9     0.4           0.56     0.11
3640.99    0.18          1.95     0.16
3644.0     0.4           0.90     0.15
3687.24    0.21          3.00     0.25
3709.3     0.5           1.2      0.3
3711.42    0.11          6.8      0.3
3850.7     0.6           0.53     0.14
3869.83    0.12          3.81     0.22
3949.97    0.09          5.61     0.23
3974.37    0.22          1.39     0.13
4043.33    0.14          2.66     0.18
4081.6     0.3           1.64     0.15
4108.52    0.08          10.5     0.3
4111.5     0.4           1.05     0.19
4150.92    0.06          11.8     0.04
4171.7     0.6           0.45     0.12
4225.9     0.8           0.59     0.18
4228.6     0.7           0.75     0.18
4239.66    0.09          5.43     0.24
4284.0     0.6           0.25     0.09
4294.44    0.15          1.99     0.13
4404.82    0.05          16.2     0.04
4439.2     0.4           0.83     0.12
4514.6     0.4           0.83     0.12
4588.26    0.06         11.7      0.3
4675.05    0.05         20.3      0.3
4714.2     0.7           0.49     0.13
4753.0     0.6           0.72     0.15
4757.86    0.10          4.98     0.25
4793.2     0.7           0.51     0.13
4818.8     0.4           0.89     0.14
4833.2     0.9           0.34     0.13
4957.1     0.4           2.2      0.3
5055.02    0.12          4.22     0.20
5112.1     0.5           0.84     0.13
5180.36    0.09          3.93     0.14
5322.2     0.7           0.73     0.12
5515.4     0.7           0.45     0.12
5695.86    0.04        157.       3.
5955.3     0.8           0.41     0.12
6090.5     0.5           0.72     0.12
6105.8     0.4           0.33     0.13
6292.3     0.7           0.53     0.13
6634.40    0.05         29.5      0.4
6719.97    0.05         55.8      0.7
7163.9     0.5           1.3      0.3
7536.62    0.06        705.       9.
7819.56    0.06       1236.      15.
ENDDATA            242
ENDSUBENT          255
SUBENT        13947005   20041221
BIB                  4          4
REACTION   (28-NI-60(N,G)28-NI-61,,SIG,,MXW)
SAMPLE     200.1 mg of NiO with 99.83 % 60Ni
ERR-ANALYS (DATA-ERR) No Information given
STATUS     (TABLE) Data taken from the article.
ENDBIB               4
COMMON               1          3
EN-DUMMY
EV
0.0253
ENDCOMMON            3
DATA                 2          1
DATA       DATA-ERR
B          B
2.34       0.05
ENDDATA              3
ENDSUBENT           16
SUBENT        13947006   20041221
BIB                  4          4
REACTION   (28-NI-59(N,G)28-NI-60,,SIG,,MXW)
SAMPLE     30 mg of NiCl with 95.35 % 59Ni
ERR-ANALYS (DATA-ERR) No Information given
STATUS     (TABLE) Data taken from the article.
ENDBIB               4
COMMON               1          3
EN-DUMMY
EV
0.0253
ENDCOMMON            3
DATA                 2          1
DATA       DATA-ERR
B          B
73.7       1.8
ENDDATA              3
ENDSUBENT           16
SUBENT        13947007   20041221
BIB                  4          4
REACTION   (28-NI-58(N,G)28-NI-59,,SIG,,MXW)
SAMPLE     120.5 mg of 99.93 enriched 58NiO target
ERR-ANALYS (DATA-ERR) No Information given
STATUS     (TABLE) Data taken from the article.
ENDBIB               4
COMMON               1          3
EN-DUMMY
EV
0.0253
ENDCOMMON            3
DATA                 2          1
DATA       DATA-ERR
B          B
4.13       0.05
ENDDATA              3
ENDSUBENT           16
ENDENTRY             7
