ENTRY            13959   20050201   20050610                  1332
SUBENT        13959001   20050201   20050610                  1332
BIB                  9         10
INSTITUTE  (2JPNJNC,1USAORL)
REFERENCE  (J,NST,41,1033,2004)
AUTHOR     (K.Furutaka,H.Harada,S.Raman)
TITLE      Prompt Gamma Rays Emitted in Thermal-neutron Capture
            Reaction by 99Tc and its Reaction Cross Section
FACILITY   (REAC,1USALAS) Los Alamos Omega West Reactor
INC-SPECT  6x1E11 n/cm2/s of thermal neutrons
SAMPLE     84.6 mg of 100 % pure Tc metal target
DETECTOR   (GE-IN) 30 cm3 coaxial intrinsic Ge detector
HISTORY    (20050201C) DR
ENDBIB              10
COMMON               1          3
EN-DUMMY
EV
0.0253
ENDCOMMON            3
ENDSUBENT           17
SUBENT        13959002   20050201   20050610                  1332
BIB                  3          3
REACTION   (43-TC-99(N,G)43-TC-100,PAR,SIG,,MXW)
ERR-ANALYS (ERR-S) Statistical errors
STATUS     Data received from K. Furutaka.
ENDBIB               3
NOCOMMON             0          0
DATA                 4       1086
E          E-ERR      DATA       ERR-S
KEV        KEV        MB         MB
  30.8     0.06         102.      12.
  39.12    0.05          87.       6.
  43.18    0.03         269.       7.
  45.84    0.08          38.       5.
  50.85    0.09           3.1      0.4
  51.70    0.09           3.8      0.4
  52.85    0.06           6.1      0.4
  53.71    0.10           3.1      0.4
  56.63    0.06           7.1      0.6
  62.79    0.03         399.      12.
  63.75    0.04         186.       9.
  71.62    0.06          32.       3.
  73.11    0.08          22.4      2.4
  75.02    0.08         105.      22.
  75.52    0.03         364.      22.
  76.9     0.5           13.0      2.1
  86.76    0.04         457.      30.
  90.59    0.03         308.      43.
  91.32    0.03        1177.      77.
  94.58    0.05           3.7      0.3
  99.02    0.03         129.       3.
 102.85    0.13          19.       3.
 103.80    0.10          31.       3.
 105.43    0.08         337.       8.7
 105.81    0.06         436.       8.7
 107.25    0.15          15.       3.
 109.9     0.7            2.4      2.4
 113.20    0.03         115.       3.
 115.86    0.14           6.5      1.3
 118.93    0.03          30.4      1.3
 124.66    0.11           8.9      1.2
 127.47    0.04          88.       7.
 128.08    0.12          35.       6.
 129.24    0.07          20.8      1.6
 132.88    0.09           5.0      0.6
 134.84    0.25           1.7      0.7
 139.05    0.11          27.       3.
 140.34    0.05          90.       4.
 141.49    0.10          32.       4.
 144.27    0.03         196.       5.
 145.73    0.05          58.       4.
 152.74    0.03          78.7      1.1
 159.22    0.03          48.3      1.8
 160.81    0.18           4.5      1.2
 163.12    0.05          29.5      2.2
 166.58    0.06         355.      29.
 168.87    0.08         503.      47.
 169.95    0.18         258.      39.
 172.21    0.03       16694.     536.
 176.51    0.04          29.4     16.
 179.77    0.09          52.       8.
 180.36    0.04         112.       9.
 182.98    0.21           4.7      1.6
 185.67    0.03          57.3      1.2
 190.70    0.03          37.9      1.0
 194.44    0.04          58.       3.
 196.47    0.03         464.       6.
 199.3     0.4           13.       7.
 199.98    0.11          44.       7.
 202.9     0.5            9.       5.
 203.7     0.8            6.       5.
 206.17    0.03         302.       6.
 209.64    0.06          47.       4.
 211.31    0.05          76.       4.
 213.24    0.03         517.       9.
 217.17    0.03         439.      10.
 220.18    0.03         206.       6.
 221.87    0.05         132.       7.
 223.48    0.03        1511.      24.
 225.38    0.03         656.      18.
 226.42    0.04         304.      14.
 230.25    0.03          93.       3.
 231.35    0.06          46.       3.
 233.22    0.10          16.5      2.0
 236.47    0.05          36.6      2.0
 238.66    0.11          35.       5.
 239.52    0.04          91.       5.
 244.68    0.12          21.       3.
 247.15    0.16          16.       3.
 252.26    0.03         332.       7.
 253.56    0.05          96.       5.
 257.46    0.06          51.       3.
 260.97    0.03         139.       4.
 263.58    0.03        1453.      18.
 269.15    0.13          38.       6.
 270.04    0.04         150.       7.
 274.83    0.22          14.       3.
 276.55    0.03         849.      10.
 280.48    0.08          10.3      1.0
 281.98    0.03          57.9      1.2
 283.21    0.09          10.8      1.0
 285.03    0.07          10.9      0.9
 286.83    0.03          31.2      1.1
 288.74    0.03          80.3      1.4
 291.20    0.14          22.       4.
 292.94    0.04          98.       4.
 295.43    0.04          94.       4.
 297.10    0.07          62.       4.
 299.48    0.03        3095.      41.
 300.92    0.07         591.      32.
 301.65    0.15         129.      37.
 304.83    0.07          25.2      1.8
 306.09    0.12          13.3      1.7
 308.74    0.03          70.3      1.8
 312.30    0.03          74.8      2.3
 313.45    0.09          24.8      2.0
 317.48    0.20          74.      17.
 318.39    0.20          72.      17.
 321.58    0.06         144.       9.
 323.78    0.06         149.      10.
 327.45    0.17          10.6     21.
 329.43    0.03          67.0     24.
 332.41    0.13          13.5     19.
 335.29    0.04          47.1     22.
 338.95    0.03         661.       7.
 340.99    0.03         152.       3.
 344.89    0.03         250.       5.
 346.36    0.17         153.      60.
 346.83    0.20         113.      61.
 348.89    0.03         166.       3.
 352.00    0.07          28.7      2.4
 355.67    0.04          47.4      1.9
 357.37    0.04         111.       4.
 358.31    0.05          70.       4.
 360.49    0.08          17.2      1.6
 363.32    0.12          13.3      1.9
 364.84    0.06          32.3      1.8
 366.32    0.03          60.7      1.8
 370.42    0.03          60.6      0.9
 372.33    0.05          14.9      0.8
 374.32    0.04          17.10     0.10
 376.10    0.08          10.5      1.2
 378.01    0.10          24.       4.
 379.61    0.08          32.       3.
 381.86    0.04          69.       3.
 385.00    0.03         289.       5.
 386.62    0.04          93.       3.
 390.04    0.03         241.       5.
 393.07    0.04          76.       3.
 396.00    0.05          60.       3.
 398.00    0.05         142.       7.
 399.17    0.03         275.       7.
 401.50    0.03          99.       4.
 404.53    0.25           5.9      1.5
 405.91    0.13          11.5      1.4
 409.32    0.19           6.1      1.1
 411.20    0.06          20.5      1.2
 413.83    0.03         131.4      1.9
 419.97    0.23          10.7      2.1
 421.73    0.06          50.       3.
 423.78    0.08          34.7      2.3
 426.10    0.08          31.5      2.3
 429.54    0.05         148.       8.
 430.50    0.12          56.       8.
 433.45    0.06          47.2      2.5
 437.55    0.04          20.9      0.9
 439.43    0.05          21.1      0.9
 440.71    0.14           7.0      0.9
 443.60    0.07           9.7      0.7
 445.66    0.08           8.4      0.7
 448.06    0.04          18.1      0.8
 452.87    0.04          53.8      2.3
 454.81    0.08          30.0      2.1
 456.99    0.03          89.       3.
 458.7     0.3           39.8      2.3
 460.40    0.04          75.       3.
 463.69    0.03         162.       3.
 465.95    0.11          20.0      2.1
 470.64    0.03         265.       5.
 472.1     0.4           14.       3.
 473.5     0.6           18.       8.
 474.4     0.6           20.       7.
 475.61    0.17          33.       5.
 479.41    0.09          36.       3.
 480.91    0.09          41.       3.
 482.46    0.17          19.       3.
 484.43    0.03         166.       3.
 486.45    0.04          78.       3.
 488.79    0.03          73.       3.
 491.30    0.05          42.       3.
 493.76    0.09          15.8      1.7
 495.90    0.09          33.       3.
 496.99    0.14          25.       3.
 498.50    0.04          47.6      1.7
 503.32    0.03          78.1      1.5
 514.93    0.03          81.0      2.3
 516.73    0.09          15.1      2.4
 518.42    0.05          12.2      6.
 520.62    0.07          26.       3.
 523.34    0.03         167.       3.
 528.42    0.13          11.10     0.15
 531.85    0.10          15.5      1.6
 536.67    0.06          44.       7.
 544.32    0.05          98.       5.
 545.41    0.14          42.       4.
 546.97    0.10          41.       3.
 548.29    0.18          16.4      2.4
 550.96    0.03          77.5      2.1
 552.78    0.10          21.5      1.8
 555.01    0.04          50.2      2.0
 558.20    0.04          49.5      2.3
 562.34    0.04          49.1      1.8
 565.21    0.03          59.6      1.7
 568.04    0.03          71.4      1.9
 569.97    0.03          98.7      2.0
 574.37    0.04          58.2      1.9
 576.06    0.19          10.4      1.7
 578.43    0.14          21.       3.
 579.60    0.13          22.       3.
 583.28    0.03          65.4      1.5
 588.27    0.07          35.5      1.9
 593.89    0.06          42.8      1.8
 595.55    0.22          10.1      1.8
 597.07    0.13          19.1      1.9
 599.15    0.14          14.5      1.8
 601.06    0.18          10.6      1.9
 604.85    0.05          35.5      1.8
 607.71    0.08          19.5      1.5
 610.53    0.07          25.4      1.5
 614.39    0.03          71.6      1.9
 619.06    0.03          60.5      1.6
 621.46    0.06          71.       5.
 622.43    0.08          54.       5.
 625.97    0.09          16.7      1.2
 628.72    0.05          30.3      1.3
 633.91    0.03          44.8      1.5
 636.55    0.06          15.4      1.5
 639.41    0.05          44.3      1.6
 640.69    0.12          18.1      1.6
 642.56    0.09          30.8      2.2
 643.64    0.17          14.3      2.2
 648.25    0.05          54.10     0.20
 649.44    0.18          15.2      1.9
 651.12    0.04          40.5      1.3
 653.10    0.03          57.4      1.3
 657.46    0.03          31.6      0.9
 660.67    0.07          12.7      0.8
 663.17    0.06          17.4      0.8
 665.06    0.06          36.4      1.4
 666.34    0.03          78.1      1.5
 668.60    0.03          34.9      0.9
 670.49    0.15           6.8      0.9
 673.47    0.14           8.0      1.4
 678.70    0.03          39.5      0.8
 681.42    0.05          23.7      0.9
 682.88    0.03          86.2      1.0
 684.75    0.12           7.4      0.7
 687.86    0.03           9.7      1.1
 689.88    0.08          29.4      2.1
 691.06    0.19          19.1      1.7
 692.32    0.12          17.4      1.7
 695.58    0.18           7.3      1.7
 697.73    0.10          13.3      1.4
 700.41    0.08          17.6      1.2
 703.88    0.03          94.1      1.8
 705.38    0.10          21.4      1.6
 710.32    0.11          11.9      1.1
 712.99    0.05          27.9      1.1
 718.15    0.16          14.3      1.8
 719.39    0.14          30.1      2.0
 720.53    0.07          34.1      2.4
 723.37    0.04          26.10     0.09
 725.46    0.18           6.2      0.9
 727.53    0.16          12.8      1.8
 728.70    0.09          23.6      1.7
 732.5     0.4            4.3      1.7
 736.86    0.04          51.9      2.0
 739.44    0.12          15.8      2.5
 741.74    0.15           8.1      1.5
 743.88    0.05          24.7      1.3
 746.45    0.03          44.3      1.2
 749.56    0.04          33.3      1.4
 752.06    0.10          12.0      1.7
 754.38    0.07          43.       3.
 756.52    0.04          67.       3.
 760.13    0.12          18.5      2.1
 764.14    0.10          11.2      1.1
 767.57    0.07          33.       3.
 768.64    0.09          32.       3.
 771.17    0.10          11.3      9.
 774.25    0.08          14.3      1.1
 781.01    0.13          21.7      1.9
 782.66    0.21          12.9      1.7
 785.48    0.16          11.10     0.16
 790.44    0.05          22.9      1.4
 794.77    0.04          34.4      1.1
 799.55    0.05          23.10     0.11
 802.73    0.20           8.5      1.2
 804.30    0.14          19.9      1.5
 805.73    0.10          23.9      1.5
 807.85    0.13          10.7      1.3
 810.29    0.09          19.8      2.4
 813.40    0.03         201.       3.
 815.02    0.20          14.5      2.0
 818.52    0.04          28.6      1.1
 825.90    0.18           6.8      1.7
 828.75    0.11          20.10     0.18
 830.05    0.12          19.4      1.9
 832.62    0.07          30.0      1.4
 834.21    0.15          16.2      1.4
 835.88    0.15          11.5      1.3
 839.71    0.16           9.8      1.2
 840.86    0.10          15.1      1.3
 847.27    0.05          30.10     0.11
 849.87    0.06          23.1      1.0
 852.43    0.04          39.2      1.2
 855.10    0.10          13.5      1.2
 859.01    0.14          19.7      2.2
 860.14    0.21          11.2      2.4
 862.89    0.04          30.9      1.1
 866.77    0.21           7.7      1.3
 868.34    0.08          28.3      1.5
 870.04    0.18          10.4      1.6
 872.58    0.11          28.3      2.4
 873.88    0.21          29.       3.
 874.97    0.12          30.       4.
 878.68    0.19           7.7      1.4
 881.05    0.06          24.3      1.3
 886.36    0.06          24.7      1.3
 888.79    0.21           7.4      1.6
 892.77    0.11          18.6      1.8
 893.96    0.13          16.2      1.7
 899.90    0.11          17.2      1.6
 904.36    0.10          24.6      1.6
 906.73    0.11          19.10     0.16
 912.19    0.08          18.1      1.1
 914.44    0.23           5.6      1.0
 917.21    0.12          13.2      1.0
 919.07    0.07          23.1      1.1
 923.30    0.23           6.8      1.6
 926.01    0.03          62.4      1.5
 928.57    0.13          11.8      1.2
 935.51    0.11          13.2      1.1
 938.61    0.10          17.1      1.1
 940.63    0.12          13.5      1.1
 943.69    0.04          45.4      1.2
 946.70    0.05          29.8      1.2
 950.09    0.12          14.10     0.13
 952.08    0.16          14.9      1.4
 953.84    0.18          11.6      1.4
 958.23    0.03          45.2      1.3
 962.31    0.09          16.3      1.1
 965.94    0.08          18.1      1.1
 968.62    0.03          55.9      1.2
 971.97    0.04          43.7      1.2
 976.65    0.13          22.1      2.3
 977.9     0.3           10.8      2.2
 982.8     0.3           11.5      2.2
 984.31    0.09          43.1      2.3
 986.26    0.12          20.8      1.6
 989.09    0.13          14.7      1.6
 994.93    0.05          30.7      1.2
 998.43    0.13          14.3      1.2
1000.34    0.14          14.9      1.2
1002.48    0.10          16.3      1.1
1005.9     0.3            5.5      1.1
1008.82    0.24           7.10     0.13
1010.66    0.07          29.0      1.4
1017.42    0.19           9.1      1.1
1019.14    0.12          14.9      1.1
1024.48    0.07          17.3      0.9
1028.20    0.14           8.10     0.10
1032.9     0.3            6.6      1.2
1034.40    0.07          24.3      1.3
1037.06    0.07          19.5      0.9
1038.96    0.19           9.7      1.0
1040.86    0.07          39.3      1.4
1042.35    0.13          15.4      1.4
1045.52    0.03          45.2      1.3
1049.32    0.11          10.3      1.0
1052.51    0.04          28.4      0.9
1055.18    0.08          15.6      1.0
1061.80    0.05          25.7      0.9
1064.68    0.08          15.4      0.9
1067.09    0.05          31.5      1.0
1069.42    0.07          19.3      1.0
1072.06    0.05          23.1      1.2
1074.87    0.15           7.8      1.4
1076.96    0.15           7.7      1.5
1079.70    0.05          23.10     0.13
1082.98    0.07          17.5      1.0
1085.33    0.07          18.3      1.0
1088.18    0.09          12.4      1.2
1091.34    0.07          20.6      1.5
1094.57    0.18          15.9      2.2
1095.9     0.3           16.1      1.9
1097.45    0.18          14.1      1.6
1105.53    0.05          46.2      1.5
1108.56    0.18          16.10     0.19
1110.34    0.19          26.3      2.3
1112.03    0.09          52.4      2.4
1113.9     0.3           10.8      1.9
1117.54    0.14           5.10     0.10
1120.95    0.05          20.8      0.8
1123.73    0.08          14.5      0.8
1125.62    0.12          10.2      0.8
1128.78    0.09          12.8      0.9
1130.71    0.21           5.8      1.0
1134.35    0.12          12.1      1.1
1136.18    0.05          30.4      1.1
1139.54    0.04          26.3      0.9
1142.85    0.06          23.7      0.9
1144.85    0.15           8.9      0.9
1148.23    0.04          27.7      1.1
1150.64    0.11          10.4      1.3
1153.61    0.03          29.2      0.9
1156.60    0.12           9.4      0.9
1158.5     0.3            5.0      1.0
1162.34    0.04          36.8      1.0
1164.92    0.15           4.3      1.0
1167.76    0.18           6.0      0.9
1170.69    0.10          11.1      1.1
1174.37    0.05          23.2      1.0
1180.69    0.04          33.2      0.9
1186.2     0.3            5.6      1.1
1187.54    0.14          10.8      1.2
1190.44    0.17           5.2      0.6
1192.89    0.03          43.3      0.7
1197.20    0.25           4.7      1.0
1201.39    0.04          24.1      1.0
1205.11    0.07          24.4      1.0
1207.07    0.14          11.2      1.0
1210.61    0.15          13.2      1.2
1212.3     0.3            8.9      1.1
1214.47    0.13          14.4      0.9
1216.76    0.04          40.7      1.0
1223.8     0.3            4.7      0.8
1230.0     0.3            8.3      1.9
1231.4     0.3            9.8      1.9
1234.96    0.11          14.8      1.0
1237.01    0.12          16.9      1.0
1239.19    0.23           7.0      1.0
1245.23    0.07          27.3      1.5
1252.84    0.18          10.9      1.7
1257.9     0.3           15.       3.
1271.2     1.7            3.       3.
1276.58    0.23           6.5      1.0
1278.90    0.07          20.8      0.9
1283.7     0.4            3.10     0.10
1286.06    0.13          11.9      1.1
1293.36    0.03          91.8      1.1
1299.53    0.05          31.0      0.9
1301.98    0.20           7.5      0.8
1304.79    0.12          11.4      0.8
1308.91    0.14          13.8      1.1
1310.7     0.4            5.2      1.1
1313.48    0.13          10.5      1.0
1317.38    0.17           7.3      1.1
1325.28    0.05          36.6      1.1
1328.37    0.11          15.10     0.10
1330.94    0.22           7.8      1.0
1335.00    0.16           9.3      1.2
1340.06    0.21           8.9      1.2
1342.40    0.11          18.3      1.2
1344.81    0.19          13.5      1.5
1346.68    0.24          10.5      1.5
1352.90    0.12          11.3      1.0
1357.32    0.14          12.5      1.0
1359.6     0.3            6.4      1.0
1362.14    0.14           3.1      1.7
1363.83    0.21          14.4      1.5
1366.27    0.22           8.3      1.2
1370.83    0.15           8.9      1.1
1373.67    0.11          14.9      0.9
1375.68    0.10          16.6      1.0
1380.48    0.10          11.9      1.0
1383.25    0.11          11.0      0.9
1386.01    0.05          27.7      0.8
1388.78    0.11          11.10     0.08
1391.40    0.13          11.1      0.9
1393.62    0.14          10.3      0.9
1399.73    0.19           5.8      0.8
1403.35    0.08          14.3      0.7
1408.12    0.12           9.5      0.7
1412.2     0.3            4.4      0.8
1414.9     0.4            3.3      0.9
1419.77    0.15          11.2      1.2
1424.6     0.6            6.       3.
1425.9     0.5            8.       3.
1430.91    0.10          13.1      0.8
1434.11    0.12          10.2      0.8
1438.85    0.06          20.5      0.8
1443.20    0.15           7.9      0.8
1447.17    0.08          15.5      0.8
1451.2     0.4            4.6      1.0
1453.1     0.3            5.1      1.0
1458.12    0.13          10.7      0.8
1460.15    0.19           7.2      0.8
1467.36    0.06          22.4      1.1
1471.34    0.11          11.8      0.9
1475.7     0.3            3.10     0.10
1479.19    0.09          14.10     0.11
1482.59    0.19           7.3      1.4
1487.12    0.14          13.5      1.3
1497.67    0.14           8.4      0.9
1502.48    0.17           6.8      0.8
1505.97    0.10          12.8      0.8
1512.14    0.03          11.       0.5
1519.50    0.18           8.0      1.1
1522.8     0.4            3.3      1.0
1532.2     0.5            2.10     0.08
1536.0     0.3            4.5      0.9
1542.32    0.24           6.5      0.9
1544.42    0.16          10.6      0.9
1547.04    0.19           8.4      0.8
1549.25    0.15           9.10     0.08
1552.9     0.3            3.7      0.7
1559.3     0.4            1.3      0.7
1564.33    0.20           5.5      0.7
1570.32    0.12          14.1      1.1
1576.69    0.16           9.7      1.0
1582.5     0.5            2.7      0.8
1587.9     0.3            4.6      0.8
1596.8     0.7            2.3      1.0
1602.34    0.17           9.8      1.0
1606.60    0.21           7.9      0.9
1612.0     0.3            4.9      0.9
1618.05    0.13          13.4      1.0
1631.4     0.3            6.3      0.9
1634.26    0.14          11.7      0.9
1644.52    0.18           8.6      0.8
1648.1     0.3            5.6      0.8
1652.4     0.3            4.7      0.8
1657.47    0.08          20.1      0.9
1670.03    0.15          10.3      0.9
1678.3     0.3            3.9      0.9
1693.6     0.3            5.6      0.9
1699.4     0.4            3.6      0.9
1704.0     0.3            6.0      0.9
1710.81    0.08          24.3      1.1
1713.73    0.15          12.10     0.10
1723.53    0.24           9.5      1.2
1726.1     0.4            5.3      1.1
1731.9     0.3            5.4      1.0
1739.7     0.5            3.7      1.0
1745.58    0.22           8.6      1.0
1757.75    0.19           8.1      0.9
1760.50    0.23           6.5      0.9
1764.79    0.19           6.9      0.8
1769.9     0.3            5.4      0.8
1772.8     0.4            3.6      0.8
1778.94    0.11          13.8      0.8
1782.3     0.3            4.4      0.8
1786.35    0.23           6.0      0.9
1791.8     0.3            4.8      0.9
1803.9     0.3            5.1      0.9
1809.36    0.15          11.4      1.1
1812.2     0.3            4.5      1.0
1815.7     0.3            4.8      0.9
1819.5     0.3            6.3      1.1
1821.55    0.25           9.2      1.1
1824.6     0.3            6.3      1.0
1827.09    0.23           7.1      1.0
1834.9     0.3            5.6      0.9
1838.5     0.3            4.5      0.8
1842.0     0.4            5.1      0.9
1844.50    0.20          10.1      1.0
1847.61    0.16           4.0      1.1
1854.59    0.24           7.6      1.1
1859.20    0.21           9.3      1.1
1862.7     0.5            4.2      1.1
1867.6     0.5            4.6      1.2
1870.1     0.3            7.2      1.2
1874.8     0.3            5.1      1.0
1877.90    0.15           9.0      0.9
1884.88    0.19           2.7      0.8
1891.35    0.24           5.7      0.9
1896.4     0.4            3.8      1.1
1902.45    0.23           7.4      1.0
1909.0     0.3            6.2      0.9
1916.4     0.4            4.1      1.2
1924.0     0.5            3.1      0.8
1930.60    0.21           6.10     0.08
1939.8     0.5            3.1      0.8
1946.8     0.8            1.10     0.10
1953.6     0.3            5.8      0.9
1960.0     0.4            2.2      0.9
1965.64    0.24           7.1      0.9
1974.7     1.1            1.5      1.0
1982.4     0.4            4.6      1.1
1986.4     0.8            2.6      1.1
1991.65    0.24           8.7      1.3
2006.0     0.5            4.2      1.2
2013.2     0.3            5.4      0.8
2022.9     0.3            9.6      1.4
2025.6     0.3            9.4      1.3
2032.75    0.18          11.6      1.1
2046.3     0.3            7.4      1.1
2048.7     0.4            5.3      1.1
2057.5     0.4            4.5      0.9
2062.8     0.9            2.0      0.9
2066.6     0.3            6.9      0.9
2070.0     0.8            2.3      0.9
2077.6     0.3            7.1      1.0
2087.2     0.4            4.2      0.9
2090.03    0.20           9.3      0.9
2092.89    0.13          12.6      0.8
2097.0     0.3            5.4      0.7
2099.84    0.19           7.9      0.7
2116.9     0.4            4.9      1.0
2124.12    0.19          10.4      1.1
2127.9     0.3            6.6      1.1
2130.7     0.4            6.4      1.1
2137.52    0.13          17.2      1.1
2140.41    0.25           9.2      1.1
2148.3     0.3            7.7      1.1
2153.90    0.24           8.2      1.0
2159.64    0.25           7.9      1.0
2163.7     0.5            4.3      1.1
2174.94    0.25           7.7      1.0
2179.56    0.24           7.9      1.0
2184.8     0.3            6.9      0.9
2192.01    0.22           8.5      1.0
2204.7     0.5            4.7      1.1
2207.8     0.6            3.5      1.1
2213.1     0.4            5.2      1.3
2231.1     0.5            3.8      1.1
2234.8     0.5            4.1      1.0
2248.51    0.24           7.5      0.9
2253.25    0.20           9.1      0.9
2263.4     0.8            3.2      1.1
2266.0     0.5            4.5      1.1
2274.4     0.5            3.10     0.10
2281.3     0.3            7.6      0.9
2284.8     0.6            3.5      0.9
2289.4     0.4            4.8      0.9
2302.5     0.5            3.6      1.0
2308.3     0.3            5.8      0.9
2320.4     0.3            4.8      0.8
2329.7     0.3            5.10     0.08
2332.8     0.6            3.9      0.9
2335.9     0.5            4.0      0.8
2340.5     0.3            6.5      0.8
2344.6     0.3            5.2      0.8
2352.7     0.4            3.9      0.9
2362.4     0.3            6.2      1.0
2370.7     0.3            7.10     0.10
2373.8     0.5            4.1      0.9
2378.48    0.19          10.4      0.9
2387.8     0.3            6.2      0.9
2394.43    0.19          10.2      1.0
2404.92    0.21           8.5      0.9
2408.1     0.3            7.6      0.9
2411.31    0.24           7.2      0.8
2417.0     0.3            6.4      0.8
2420.9     0.7            2.6      0.8
2424.4     0.3            6.3      0.8
2428.09    0.17           9.8      0.8
2436.3     0.4            5.8      1.1
2441.5     0.4            4.8      1.0
2448.0     0.3            5.9      1.0
2455.9     0.4            4.6      0.9
2460.5     0.5            4.5      0.9
2477.28    0.14          14.5      1.0
2484.4     0.3            8.1      1.0
2492.2     0.4            5.0      1.0
2501.1     0.3            4.8      0.9
2508.41    0.15          11.1      0.8
2513.5     0.5            3.1      0.7
2527.37    0.25           7.4      1.0
2533.2     0.4            4.3      0.9
2538.13    0.23           7.8      1.0
2544.7     0.3            7.3      1.2
2548.1     0.3            6.6      1.3
2555.23    0.24           6.9      0.8
2558.45    0.16          10.3      0.7
2566.3     0.3            4.7      0.7
2569.8     0.4            4.4      0.7
2574.2     0.4            3.10     0.08
2590.5     0.3            9.6      1.2
2593.3     0.4            7.1      1.2
2604.60    0.25           9.3      1.1
2609.79    0.24           9.7      1.2
2617.9     0.3            5.4      0.7
2621.5     0.4            3.4      0.7
2631.2     0.4            3.7      0.7
2641.0     0.3            7.6      1.1
2644.48    0.21          10.9      1.0
2650.8     0.4            5.4      1.0
2661.65    0.17          11.10     0.09
2671.7     0.3            9.4      1.1
2674.8     0.3            8.8      1.1
2694.3     0.3            8.1      1.1
2697.4     0.5            5.3      1.1
2709.5     0.5            4.3      1.3
2713.8     0.7            3.9      1.1
2717.1     0.4            6.2      1.1
2722.2     0.3            7.3      1.0
2732.23    0.22           8.8      1.1
2745.6     0.3            5.7      1.0
2757.51    0.22           8.4      0.9
2761.7     0.3            8.2      1.0
2764.6     0.3            9.2      1.0
2768.0     0.5            4.6      0.9
2773.58    0.19          11.3      1.1
2776.65    0.20          11.4      1.2
2782.5     0.3            6.6      0.8
2786.12    0.20          11.3      0.9
2789.2     0.3            6.9      0.9
2796.6     0.3            5.8      0.8
2800.60    0.22           8.0      0.8
2807.8     0.3            7.4      0.9
2811.3     0.3            7.5      0.9
2818.4     0.5            4.2      1.1
2827.5     0.3            7.6      1.0
2830.9     0.4            5.9      1.0
2840.67    0.24           9.3      1.0
2846.33    0.20          11.5      1.0
2859.4     0.4            4.9      1.1
2870.02    0.22           8.3      0.9
2879.56    0.24           7.6      0.8
2886.3     0.4            5.3      0.8
2890.43    0.16          12.4      0.9
2897.1     0.3            7.4      0.9
2909.49    0.13          14.1      0.8
2918.06    0.22           7.9      0.8
2922.8     0.9            4.4      1.9
2928.28    0.23           8.7      0.9
2929.1     0.5            8.2      2.0
2934.7     0.4            4.2      0.8
2945.1     0.3            4.5      0.9
2952.0     0.4            3.8      0.9
2957.1     0.4            5.3      0.8
2960.2     0.4            6.1      0.8
2963.6     0.3            6.0      0.7
2974.7     0.3            5.7      0.8
2978.2     0.3            7.1      0.9
2984.01    0.23           9.0      0.9
2987.15    0.19          13.8      1.0
2989.9     0.6            7.4      1.2
2991.3     0.4           12.       0.3
2992.3     0.4            6.7      1.2
2998.5     0.4            4.4      0.9
3012.67    0.16          11.1      0.8
3018.5     0.3            5.9      0.8
3024.8     0.3            6.3      0.9
3033.2     0.3            8.4      1.0
3036.3     0.3           11.8      1.1
3039.7     0.5            7.2      1.1
3042.6     0.4            7.1      1.1
3049.0     0.3            6.2      1.0
3058.6     0.3            9.10     0.15
3067.06    0.11          12.2      0.8
3071.5     0.3            5.8      0.8
3074.43    0.14          12.4      0.8
3079.96    0.11          13.5      0.9
3083.66    0.17           8.7      1.0
3089.13    0.13          13.3      1.4
3094.8     0.3            8.10     0.11
3102.6     0.3            8.1      1.2
3105.7     0.3            8.10     0.13
3115.53    0.25           9.1      1.0
3120.48    0.22          12.10     0.11
3123.9     0.5            6.4      1.1
3127.2     0.4            6.5      1.1
3135.0     0.3            7.5      1.0
3141.8     0.7            7.5      2.5
3143.90    0.23           7.4      0.9
3148.1     0.5            8.8      2.2
3149.3     0.3            7.1      0.8
3155.55    0.09          18.1      0.8
3160.51    0.20           8.5      0.8
3164.4     0.6            7.8      2.2
3166.55    0.16          10.3      0.8
3172.72    0.13          19.9      1.0
3174.83    0.03          16.5      1.2
3188.4     0.6            7.5      2.2
3198.0     0.5            9.7      2.2
3210.3     0.5            8.9      2.2
3225.8     0.5           12.       3.
3233.4     0.8            7.       3.
3244.2     0.4           15.       3.
3265.8     0.9            6.       3.
3270.7     0.6            9.       3.
3278.9     0.3           12.1      2.3
3285.1     0.4           10.0      2.0
3289.0     0.6            6.5      2.0
3302.9     0.9            4.2      2.0
3311.6     0.6           11.       3.
3314.7     0.6           11.       3.
3321.6     0.6            9.       3.
3329.4     1.0            5.6      2.5
3332.1     0.9            6.1      2.4
3341.38    0.22          20.0      2.2
3347.0     0.3           14.2      2.1
3360.90    0.25          16.9      2.0
3367.9     0.4            9.6      2.0
3379.0     0.5            9.2      2.2
3381.9     0.5           10.8      2.3
3395.4     0.3           14.1      2.0
3401.8     0.6            6.6      1.8
3407.0     0.3           17.2      2.0
3410.1     0.3           16.9      2.0
3419.17    0.23          17.3      1.9
3426.0     0.3           12.5      1.9
3440.6     0.3           20.       3.
3443.8     0.4           15.       3.
3450.2     0.4           13.       3.
3453.1     0.4           17.       3.
3460.6     2.1            3.       3.
3473.1     0.7            9.       3.
3476.6     0.5           12.       3.
3495.1     0.9            5.2      2.1
3501.2     0.6            7.2      2.1
3509.9     0.3           15.7      2.2
3522.7     0.6            9.3      2.3
3525.8     0.5           10.6      2.4
3536.4     0.3            9.6      1.7
3542.6     0.4            7.4      1.6
3557.2     0.4            8.3      1.5
3563.0     0.4            8.4      1.5
3573.8     0.3            8.9      1.5
3586.1     0.6            8.1      2.4
3591.5     0.4           13.6      2.5
3600.7     0.3           19.       3.
3605.6     0.4           14.6      2.5
3613.80    0.18          32.       3.
3621.79    0.23          20.4      2.3
3633.2     0.9            5.0      2.0
3658.2     0.5            8.4      2.0
3672.1     1.1            5.       3.
3695.81    0.11          20.3      1.2
3736.08    0.24          14.0      1.8
3756.5     0.4           14.7      2.5
3763.4     0.7            7.2      2.4
3768.8     0.6            9.1      2.4
3779.4     0.5            7.2      1.8
3784.3     0.3           11.5      1.8
3788.9     0.4            9.2      1.8
3793.3     0.4            8.7      1.8
3803.8     0.4           10.9      1.8
3809.41    0.23          19.4      1.9
3812.9     0.8            5.4      1.7
3821.3     0.5            7.6      1.7
3832.5     0.5            7.9      1.7
3836.8     0.5            7.5      1.7
3852.1     0.5            7.9      1.7
3863.75    0.24          18.7      2.0
3876.4     0.5            8.6      1.9
3881.5     0.4           11.3      1.9
3886.2     0.6            6.7      1.9
3891.3     0.5            9.1      1.9
3904.3     0.5            7.6      1.7
3909.3     0.4            9.2      1.7
3915.98    0.21          19.7      1.8
3920.2     0.3           11.6      1.8
3927.09    0.21          18.10     0.18
3932.6     0.3           22.       3.
3934.9     0.6            9.       3.
3940.9     0.4            9.3      2.0
3949.71    0.21          18.7      1.8
3957.1     0.7            4.8      1.6
3969.2     0.5            7.8      1.8
3985.1     0.3           15.0      2.0
3998.3     0.6            7.6      1.9
4009.7     0.5            9.7      1.9
4014.7     0.4           10.3      1.9
4021.1     0.4           10.9      1.9
4034.7     0.3           16.6      2.0
4041.60    0.21          22.5      2.1
4045.7     0.3           14.2      2.0
4065.61    0.16          21.5      1.6
4072.00    0.14          25.0      1.6
4082.94    0.22          15.2      1.7
4096.3     0.3           21.3      2.4
4102.3     0.4           12.1      2.2
4115.4     0.3           15.10     0.23
4128.82    0.25          10.4      1.3
4133.61    0.24          10.7      1.3
4138.8     0.4            7.3      1.3
4143.33    0.20          15.2      1.4
4147.01    0.19          16.1      1.4
4163.6     0.3           14.7      1.8
4167.0     0.7            6.1      1.7
4172.3     0.4            8.5      1.6
4184.0     0.4           10.7      1.9
4192.86    0.22          20.7      2.1
4206.6     0.6            7.4      1.9
4212.0     0.3           13.10     0.20
4216.6     0.4           12.8      1.9
4228.28    0.21          16.9      1.7
4235.2     0.3           17.2      1.9
4238.29    0.15          32.5      2.0
4244.5     0.5            7.4      1.5
4248.9     0.4           10.1      1.8
4253.3     0.3           11.7      1.8
4259.1     0.3           12.3      1.8
4266.95    0.10          45.3      2.3
4272.5     0.3           10.8      1.8
4282.4     0.3           21.5      2.3
4285.0     0.4           14.9      2.2
4291.2     0.3           14.6      1.6
4296.7     0.4            8.4      1.6
4304.1     0.3           11.4      1.6
4312.84    0.24          15.4      1.6
4329.8     0.3            8.6      1.4
4336.74    0.16          19.6      1.4
4344.2     0.5            5.10     0.12
4357.93    0.12          27.2      1.4
4366.3     0.3           10.6      1.3
4381.70    0.22          14.8      2.0
4383.69    0.16          27.4      2.3
4388.8     0.4            6.7      1.2
4398.9     0.3           10.9      1.3
4404.26    0.14          21.0      1.4
4409.5     0.3           11.1      1.3
4418.59    0.18          16.7      1.4
4433.85    0.20          32.       3.
4446.3     0.3           18.       3.
4455.56    0.13          25.3      1.7
4462.1     0.5           20.       6.
4464.00    0.19          62.       6.
4467.7     0.5            8.2      1.6
4472.68    0.15          22.8      1.7
4480.10    0.14          20.7      1.3
4484.81    0.21          13.6      1.2
4491.2     0.3            9.2      1.2
4496.0     0.5            7.8      1.5
4498.88    0.22          17.10     0.15
4506.96    0.21          24.1      2.0
4508.75    0.3            1.       3.
4511.83    0.11          33.9      1.5
4522.1     0.3           10.0      1.4
4539.6     0.4            9.4      1.4
4543.4     0.3           10.0      1.5
4553.96    0.15          19.9      1.4
4560.38    0.18          16.0      1.3
4567.73    0.24          25.       3.
4570.3     0.3           23.7      2.3
4573.2     0.3           14.1      1.9
4586.35    0.17          21.6      1.6
4592.5     0.4            7.6      1.5
4600.9     0.5            6.3      1.5
4607.0     0.5            6.10     0.14
4618.05    0.11          32.7      1.6
4626.4     0.4            9.4      1.4
4630.0     0.5            7.6      1.3
4637.0     0.3            9.6      1.3
4641.90    0.23          17.1      1.5
4645.3     0.5            7.6      1.4
4653.2     0.3            9.6      1.3
4658.88    0.21          18.6      1.4
4662.67    0.18          21.1      1.4
4670.70    0.22          14.4      1.3
4679.0     0.3           18.7      2.0
4681.7     0.3           18.3      2.1
4689.1     0.6            4.7      1.2
4700.4     0.4            7.3      1.2
4719.9     0.4           16.       3.
4722.50    0.18          44.       3.
4729.7     0.4           18.       3.
4732.2     0.3           28.       3.
4740.4     0.4           18.       3.
4744.2     0.3           21.3      2.4
4752.62    0.18          27.9      2.1
4773.50    0.18          21.10     0.17
4782.6     0.3           11.6      1.5
4795.27    0.16          23.4      1.6
4810.7     0.3           10.6      1.2
4823.9     0.4           13.9      1.9
4826.80    0.25          20.9      1.9
4839.28    0.05          82.3      2.2
4852.8     0.3            9.9      1.2
4861.1     0.5           10.5      1.7
4864.3     0.4           12.4      1.7
4873.28    0.21          17.8      1.5
4901.64    0.19          19.10     0.15
4906.2     0.5            8.4      1.3
4910.3     0.5            8.1      1.3
4915.52    0.14          27.4      1.6
4925.65    0.23          14.9      1.6
4936.60    0.11          25.9      1.3
4954.8     0.5            8.10     0.21
4968.58    0.13          19.8      1.2
4975.04    0.8           36.1      1.3
4979.25    0.15          18.9      1.1
4988.7     0.3           11.3      1.1
4992.4     0.4            8.8      1.2
4995.9     0.3           14.8      1.3
4999.4     0.6            5.7      1.2
5010.80    0.19          22.0      1.7
5015.25    0.20          21.1      1.6
5033.40    0.16          24.5      1.5
5046.81    0.18          20.9      1.5
5057.5     0.4            9.6      1.4
5063.84    0.15          26.2      1.5
5070.6     0.5            6.5      1.3
5094.12    0.12          52.       3.
5110.68    0.12          25.8      1.3
5120.7     0.4            7.1      1.3
5129.08    0.09          39.2      1.5
5139.7     0.3            9.4      1.1
5153.03    0.16          18.6      1.2
5168.57    0.08          47.4      1.5
5174.6     0.3           10.5      1.1
5185.5     0.3            9.8      1.1
5194.1     0.3            9.2      1.1
5216.05    0.07          30.3      0.8
5222.09    0.12          14.6      0.7
5229.6     0.3            6.4      0.6
5241.4     0.4            3.10     0.06
5245.78    0.20           9.3      0.7
5254.1     0.3            5.5      0.8
5258.79    0.19           9.10     0.08
5265.87    0.13          19.1      1.0
5269.4     0.3            0.9      1.0
5285.2     0.7            3.8      1.0
5290.2     0.8            3.4      1.0
5297.6     0.4            2.5      1.1
5306.2     0.3            9.10     0.11
5319.4     0.3            9.8      1.1
5324.21    0.22          14.3      1.1
5340.8     0.8            3.8      1.0
5344.7     0.6            4.9      1.0
5351.7     0.6            4.1      1.0
5371.91    0.09          36.9      1.3
5383.8     0.5            4.0      0.9
5389.65    0.16          27.7      1.7
5392.45    0.11          40.8      1.8
5401.68    0.11          20.7      0.9
5411.81    0.03         208.6      2.4
5420.8     0.3            6.0      0.8
5434.94    0.13          41.9      2.0
5437.9     0.3           18.4      1.8
5452.8     0.3            9.5      1.1
5457.1     0.6            5.6      1.1
5460.9     0.4            7.8      1.1
5468.91    0.04         111.5      2.2
5496.2     0.3           10.2      1.0
5518.51    0.06          63.7      1.6
5528.3     0.6            4.5      0.9
5551.47    0.08          32.8      1.1
5577.2     0.6            5.10     0.11
5580.9     0.7            5.10     0.11
5584.9     0.5            6.7      1.0
5595.7     0.3            9.6      1.1
5605.3     0.6            2.9      0.7
5613.4     0.5            3.8      0.7
5621.35    0.19          10.3      0.8
5637.2     0.3            6.4      0.7
5655.57    0.15          20.5      1.2
5659.94    0.08          47.2      1.6
5664.7     0.3            9.9      0.9
5696.73    0.03         151.10     0.24
5713.81    0.08          37.1      1.2
5720.65    0.12          22.9      1.1
5727.90    0.22          11.4      1.0
5754.59    0.05         101.9      2.1
5764.78    0.24          12.10     0.12
5772.4     0.6            4.7      1.1
5792.95    0.16          20.2      1.2
5811.7     0.4            5.2      0.8
5835.2     0.3            6.7      0.8
5878.32    0.08          46.6      1.4
5899.51    0.17           7.6      0.5
5907.4     0.6            2.2      0.5
5911.3     0.6            2.5      0.5
5927.0     0.3            6.3      0.7
5935.45    0.13          17.5      0.8
5943.25    0.09          25.4      0.9
5981.13    0.23           6.3      0.6
6017.4     0.6            1.3      0.5
6055.64    0.20           9.0      0.7
6063.7     0.4            3.6      0.6
6084.13    0.24           5.6      0.5
6125.16    0.13          15.9      0.9
6130.46    0.19           9.9      0.7
6165.09    0.18           9.1      0.6
6184.47    0.17          10.0      0.6
6212.7     0.4            3.5      0.5
6219.97    0.05          58.1      1.3
6225.17    0.12          17.5      0.8
6250.85    0.14          12.5      0.6
6264.74    0.08          29.7      0.9
6270.6     0.6            7.8      0.6
6303.91    0.25           7.7      0.6
6308.5     0.4            4.6      0.5
6340.3     0.8            1.2      0.4
6364.5     0.4            2.9      0.4
6444.9     0.4            2.6      0.4
6470.2     0.4            2.9      0.4
6477.2     0.3            3.3      0.4
6501.1     0.3            3.6      0.4
6520.5     0.6            1.4      0.3
6564.26    0.10          17.1      0.7
6593.2     0.8            1.2      0.3
ENDDATA           1088
ENDSUBENT         1096
ENDENTRY             2
