ENTRY            13998   20050509   20050707                  1335
SUBENT        13998001   20050509   20050707                  1335
BIB                 10         17
INSTITUTE  (1USAORL)
REFERENCE  (J,PR/C,68,015802,2003)
AUTHOR     (W.Rapp,P.E.Koehler,F.Kappeler,S.Raman)
TITLE      95Mo(n,alpha) cross section from 1 eV to 500 keV:
            A test of the alpha + nucleus optical potential used
            in calculating reaction rates for explosive
            nucleosynthesis
FACILITY   (LINAC,1USAORL) ORELA white neutron source
INC-SOURCE Neutrons were produced via (g,n) reactions from the
            intense bremsstrahlung photon flux generated as
            electrons slowed down in a Ta target
DETECTOR   (FISCH) Compensated ionization chamber at a distance of
            8.840 m from the neutron source
METHOD     (TOF)
SAMPLE     two metallic 95Mo, 96.8%-enriched foils, 5 mg/cm2 thick
            by 11 cm in diameter each
HISTORY    (20050509C) DR
ENDBIB              17
NOCOMMON             0          0
ENDSUBENT           20
SUBENT        13998002   20050509   20050707                  1335
BIB                  4          9
REACTION  1(42-MO-95(N,0),,EN)
          2(42-MO-95(N,0),,J)
          3(42-MO-95(N,0),,PTY)
          4(42-MO-95(N,EL),,WID/RED,,2G)
FLAG       (1.) Assumed parity
           (2.) Assumed spin
           (3.) Assumed spin and parity
ERR-ANALYS Statistical and systematics uncertainties
STATUS     Data taken from Table 2
ENDBIB               9
NOCOMMON             0          0
DATA                 6         50
DATA      1DATA      2DATA      3DATA      4DATA-ERR  4FLAG
EV         NO-DIM     NO-DIM     MILLI-EV   MILLI-EV   NO-DIM
  -9.90    2.         +1.          2.72
  44.69    3.         +1.        200.       10.
 110.5     1.         -1.          0.16      0.02
 117.8     2.         -1.          0.15      0.02      1.
 159.49    3.         +1.         15.        1.
 218.28    4.         -1.          1.3       1.        2.
 245.84    2.         +1.          0.50      0.02      3.
 263.59    3.         +1.          1.4       0.2       3.
 330.92    3.         -1.          3.4       0.5       2.
 357.75    3.         +1.        320.       60.
 418.2     2.         +1.          1.00      0.14      3.
 468.68    2.         -1.         11.        1.        2.
 554.08    2.         +1.        110.       20.
 595.67    3.         +1.          0.84      0.20      3.
 630.01    4.         -1.         20.        3.        2.
 661.78    3.         +1.         18.0       1.5
 680.19    3.         +1.        830.       50.
 702.62    2.         +1.          2.9       0.3       3.
 708.25    3.         +1.         13.4       0.8       3.
 745.46    3.         -1.          5.5       2.0       2.
 769.83    3.         +1.         28.        3.
 898.27    2.         +1.        265.       30.
 932.13    3.         +1.          3.5       3.        3.
 956.50    2.         +1.          1.5       0.7       3.
 981.23    2.         +1.         37.        6.
1011.1     3.         -1.         12.6       1.0       2.
1023.8     3.         +1.        110.       20.
1035.7     3.         +1.         13.2       1.0       3.
1059.2     2.         +1.          9.2       0.8       3.
1122.5     3.         +1.          4.0       0.6       3.
1144.6     2.         +1.        250.       50.
1170.5     3.         +1.         20.6       1.8       3.
1203.4     3.         +1.        131.        9.
1296.9     3.         +1.         11.        1.        3.
1340.7     3.         +1.         88.                  3.
1360.6     3.         +1.          6.0       0.8       3.
1386.7     3.         +1.         11.6       1.0       3.
1419.3     3.         +1.        620.       70.        3.
1437.0     3.         +1.         15.6       1.4       3.
1495.5     5.         +1.        360.                  3.
1570.0     3.         +1.         12.        1.        3.
1576.8     3.         +1.         10.4       0.8       3.
1589.5     5.         +1.        215.                  3.
1677.4     3.         +1.        100.       25.        3.
1704.1     3.         +1.         42.8       6.4       3.
1766.1     5.         +1.        270.                  3.
1788.0     3.         +1.         62.       10.        3.
1841.7     3.         +1.         38.8       5.2       3.
1853.3     3.         +1.          6.4       0.8       3.
1925.1     3.         +1.         36.0       4.6       3.
ENDDATA             52
ENDSUBENT           66
SUBENT        13998003   20050509   20050707                  1335
BIB                  4          7
REACTION  1(42-MO-95(N,0),,EN)
          2(42-MO-95(N,0),,J)
          3(42-MO-95(N,0),,PTY)
          4(42-MO-95(N,G),,WID)
FLAG       (1.) Assumed gamma width
ERR-ANALYS Statistical and systematics uncertainties
STATUS     Data taken from Table 2
ENDBIB               7
NOCOMMON             0          0
DATA                 6         50
DATA      1DATA      2DATA      3DATA      4DATA-ERR  4FLAG
MEV        NO-DIM     NO-DIM     MILLI-EV   MILLI-EV   NO-DIM
  -9.90    2.         +1.        160.                  1.
  44.69    3.         +1.        150.        10.
 110.5     1.         -1.        310.        80.
 117.8     2.         -1.        200.       120.
 159.49    3.         +1.        166.        20.
 218.28    4.         -1.        160.                  1.
 245.84    2.         +1.        160.                  1.
 263.59    3.         +1.        160.                  1.
 330.92    3.         -1.        160.                  1.
 357.75    3.         +1.        145.        20.
 418.2     2.         +1.        160.                  1.
 468.68    2.         -1.        160.                  1.
 554.08    2.         +1.        160.                  1.
 595.67    3.         +1.        160.                  1.
 630.01    4.         -1.        160.                  1.
 661.78    3.         +1.        160.                  1.
 680.19    3.         +1.        145.        15.
 702.62    2.         +1.        160.                  1.
 708.25    3.         +1.        160.                  1.
 745.46    3.         -1.        160.                  1.
 769.83    3.         +1.        160.                  1.
 898.27    2.         +1.        175.        20.
 932.13    3.         +1.        160.                  1.
 956.50    2.         +1.        160.                  1.
 981.23    2.         +1.        160.                  1.
1011.1     3.         -1.        160.                  1.
1023.8     3.         +1.        160.                  1.
1035.7     3.         +1.        160.                  1.
1059.2     2.         +1.        160.                  1.
1122.5     3.         +1.        160.                  1.
1144.6     2.         +1.        160.                  1.
1170.5     3.         +1.        160.                  1.
1203.4     3.         +1.        160.                  1.
1296.9     3.         +1.        160.                  1.
1340.7     3.         +1.        160.                  1.
1360.6     3.         +1.        160.                  1.
1386.7     3.         +1.        160.                  1.
1419.3     3.         +1.        170.        12.
1437.0     3.         +1.        160.                  1.
1495.5     5.         +1.        160.                  1.
1570.0     3.         +1.        160.                  1.
1576.8     3.         +1.        160.                  1.
1589.5     5.         +1.        160.                  1.
1677.4     3.         +1.        160.                  1.
1704.1     3.         +1.        160.                  1.
1766.1     5.         +1.        160.                  1.
1788.0     3.         +1.        160.                  1.
1841.7     3.         +1.        160.                  1.
1853.3     3.         +1.        160.                  1.
1925.1     3.         +1.        160.                  1.
ENDDATA             52
ENDSUBENT           64
SUBENT        13998004   20050509   20050707                  1335
BIB                  3          6
REACTION  1(42-MO-95(N,0),,EN)
          2(42-MO-95(N,0),,J)
          3(42-MO-95(N,0),,PTY)
          4(42-MO-95(N,A),,WID)
ERR-ANALYS Statistical and systematics uncertainties
STATUS     Data taken from Table 2
ENDBIB               6
NOCOMMON             0          0
DATA                 6         50
DATA      1DATA      2DATA      3DATA      4DATA-MAX  4DATA-ERR  4
MEV        NO-DIM     NO-DIM     MICRO-EV   MICRO-EV   MICRO-EV
  -9.90    2.         +1.         12.3                  1.2
  44.69    3.         +1.          0.0349               0.0021
 110.5     1.         -1.                   11.
 117.8     2.         -1.                    7.9
 159.49    3.         +1.                    0.24
 218.28    4.         -1.                    2.4
 245.84    2.         +1.                    3.9
 263.59    3.         +1.                    3.1
 330.92    3.         -1.         14.6                  3.0
 357.75    3.         +1.          0.382                0.084
 418.2     2.         +1.                   13.
 468.68    2.         -1.         18.8                  1.7
 554.08    2.         +1.          5.26                 4.1
 595.67    3.         +1.                   16.
 630.01    4.         -1.                    1.6
 661.78    3.         +1.                    1.5
 680.19    3.         +1.                    0.19
 702.62    2.         +1.         14.6                  9.9
 708.25    3.         +1.          3.4                  2.4
 745.46    3.         -1.                   10.
 769.83    3.         +1.                    1.6
 898.27    2.         +1.         18.0                  1.0
 932.13    3.         +1.                   16.
 956.50    2.         +1.                   46.
 981.23    2.         +1.         54.5                  3.1
1011.1     3.         -1.                    3.8
1023.8     3.         +1.                    0.60
1035.7     3.         +1.                    4.0
1059.2     2.         +1.                    7.5
1122.5     3.         +1.         74.                  31.
1144.6     2.         +1.         45.2                  2.3
1170.5     3.         +1.         10.3                  5.5
1203.4     3.         +1.                    0.80
1296.9     3.         +1.                    6.7
1340.7     3.         +1.          3.3                  1.8
1360.6     3.         +1.                   28.
1386.7     3.         +1.         11.5                  7.6
1419.3     3.         +1.                    0.97
1437.0     3.         +1.                    6.2
1495.5     5.         +1.          4.77                 0.91
1570.0     3.         +1.                    5.0
1576.8     3.         +1.                    3.7
1589.5     5.         +1.                    0.85
1677.4     3.         +1.          2.5                  1.8
1704.1     3.         +1.          4.0                  3.2
1766.1     5.         +1.                    1.4
1788.0     3.         +1.                    3.0
1841.7     3.         +1.          6.2                  3.8
1853.3     3.         +1.         13.                  10.
1925.1     3.         +1.         22.                  13.
ENDDATA             52
ENDSUBENT           63
SUBENT        13998005   20050509   20050707                  1335
BIB                  3          6
REACTION  1(42-MO-95(N,0),,EN)
          2(42-MO-95(N,0),,J)
          3(42-MO-95(N,0),,PTY)
          4(42-MO-95(N,A),,ARE,,FCT) Units of meV
ERR-ANALYS Statistical and systematics uncertainties
STATUS     Data taken from Table 2
ENDBIB               6
NOCOMMON             0          0
DATA                 6         49
DATA      1DATA      2DATA      3DATA      4DATA-MAX  4DATA-ERR  4
MEV        NO-DIM     NO-DIM     MICRO-EV   MICRO-EV   MICRO-EV
  44.69    3.         +1.          0.0108               0.0010
 110.5     1.         -1.                   0.0028
 117.8     2.         -1.                   0.0030
 159.49    3.         +1.                   0.010
 218.28    4.         -1.                   0.0097
 245.84    2.         +1.                   0.0061
 263.59    3.         +1.                   0.013
 330.92    3.         -1.          0.152                0.032
 357.75    3.         +1.          0.146                0.032
 418.2     2.         +1.                   0.040
 468.68    2.         -1.          0.597                0.055
 554.08    2.         +1.          0.990                0.078
 595.67    3.         +1.                   0.041
 630.01    4.         -1.                   0.092
 661.78    3.         +1.                   0.079
 680.19    3.         +1.                   0.094
 702.62    2.         +1.          0.130                0.088
 708.25    3.         +1.          0.132                0.092
 745.46    3.         -1.                   0.17
 769.83    3.         +1.                   0.12
 898.27    2.         +1.          4.84                 0.24
 932.13    3.         +1.                   0.18
 956.50    2.         +1.                   0.21
 981.23    2.         +1.          4.92                 0.28
1011.1     3.         -1.                   0.14
1023.8     3.         +1.                   0.13
1035.7     3.         +1.                   0.15
1059.2     2.         +1.                   0.20
1122.5     3.         +1.          0.91                 0.38
1144.6     2.         +1.         12.29                 0.62
1170.5     3.         +1.          0.60                 0.32
1203.4     3.         +1.                   0.19
1296.9     3.         +1.                   0.22
1340.7     3.         +1.          0.63                 0.34
1360.6     3.         +1.                   0.50
1386.7     3.         +1.          0.39                 0.26
1419.3     3.         +1.                   0.43
1437.0     3.         +1.                   0.28
1495.5     5.         +1.          2.40                 0.46
1570.0     3.         +1.                   0.18
1576.8     3.         +1.                   0.12
1589.5     5.         +1.                   0.33
1677.4     3.         +1.          0.51                 0.37
1704.1     3.         +1.          0.44                 0.34
1766.1     5.         +1.                   0.62
1788.0     3.         +1.                   0.42
1841.7     3.         +1.          0.62                 0.38
1853.3     3.         +1.          0.26                 0.20
1925.1     3.         +1.          2.0                  1.2
ENDDATA             51
ENDSUBENT           62
ENDENTRY             5
