ENTRY            M0879   20210620   20210810   20210810       M113
SUBENT        M0879001   20210620   20210810   20210810       M113
BIB                 14         27
TITLE      Ground-state photoneutron reactions in O-18.
AUTHOR     (J.W.Jury,P.C.-K.Kuo,K.G.McNeill,C.K.Ross,H.R.Weller,
            S.Raman)
REFERENCE  (J,PR/C,36,1243,1987)
           #doi:10.1103/PhysRevC.36.1243
INSTITUTE  (1CANOTC,1USADKE,1USAOAU)
FACILITY   (LINAC,1CANOTC)
INC-SOURCE (KINDT) The neutron time-of-flight spectra were
            converted to center-of-mass energy spectra with
            relativistically exact kinematic relations
METHOD     (TOF)
DETECTOR   (SCIN)
SAMPLE     The 18O sample in form of 60g of H2-18O (99.5%
            purity) contained in a thin-walled right circular
            glass cylinder.
ANALYSIS   The cross section scale of the total integrated cross
            section was determined from the deuterium data
            (measured at the same time as the 18O) by use of
            calculations by Arenhovel et. al. and Partovi.
ERR-ANALYS (DATA-ERR) No information on source of uncertainties.
MONITOR    (1-H-2(G,N)1-H-1,,SIG)
MONIT-REF  (,H.Arenhovel+,J,PL/B,52,303,1974) for Eg < 10 MeV.
           (,F.Partovi,J,AP,27,79,1964) For Eg > 10 MeV.
HISTORY    (20140904C) Data were compiled at the Russia MSU SINP
            CDFE by V.Varlamov.
           (20210620A) Corrected by SD and VV: Corrections in
            all SUBENTs,  SUBENTs 003 and 004 were merged.
ENDBIB              27
COMMON               1          3
E-LVL
MEV
 0.0
ENDCOMMON            3
ENDSUBENT           34
SUBENT        M0879002   20210620   20210810   20210810       M113
BIB                  3          5
REACTION   (8-O-18(G,N)8-O-17,PAR,SIG)
           The total angle-integrated cross section, 4PiA0.
STATUS     (CURVE) Data from Fig. 1 of Phys.Rev.,C36(1987)1243.
           (COREL,M0879003) Legendre coefficients
HISTORY    (20210620U) Corrected by SD and VV: STATUS added.
ENDBIB               5
NOCOMMON             0          0
DATA                 3         66
EN         DATA       DATA-ERR
MEV        MB         MB
 14.47       2.48        .43
 14.6        2.55        .40
 14.68       2.97        .49
 14.8        3.67        .45
 14.87       3.53        .40
 15.07       3.42        .27
 15.19       2.94        .43
 15.27       1.82        .24
 15.33       1.28        .25
 15.4         .85        .35
 15.47        .86        .28
 15.59        .87        .29
 15.69        .61        .27
 15.77        .95        .58
 15.87       1.20        .55
 16.         1.25        .64
 16.11       1.67        .24
 16.19        .92        .25
 16.3         .70        .17
 16.38        .70        .21
 16.49        .83        .45
 16.66        .69        .13
 16.82        .86        .48
 16.94        .75        .16
 17.1        1.26        .28
 17.26       1.42        .67
 17.42       1.10        .60
 17.5        1.22        .36
 17.63       1.13        .35
 17.8        1.66        .55
 17.9        1.18        .21
 18.          .8         .4
 18.13       1.33        .50
 18.29       1.74        .70
 18.44       1.39        .97
 18.6        1.26        .32
 18.72       1.24        .53
 18.81       1.39        .34
 19.         1.20        .35
 19.2        1.15        .37
 19.4         .83        .27
 19.6         .72        .26
 19.8         .80        .18
 20.          .59        .24
 20.28       1.60        .37
 20.52       1.34        .42
 20.75       1.24        .33
 21.         1.25        .34
 21.27       1.18        .24
 21.5        1.18        .40
 21.71       1.23        .43
 22.         1.23        .33
 22.3        1.13        .41
 22.52        .90        .32
 22.78        .86        .24
 23.         1.12        .13
 23.3         .95        .16
 23.54       1.00        .15
 23.81        .86        .20
 24.          .70        .17
 24.29        .69        .13
 24.51        .69        .11
 24.77        .68        .10
 25.          .60        .11
 25.26        .48        .10
 25.52        .49        .13
ENDDATA             68
ENDSUBENT           78
SUBENT        M0879003   20210620   20210810   20210810       M113
BIB                  3          6
REACTION   (8-O-18(G,N)8-O-17,PAR,DA,,LEG/RS)
STATUS     (CURVE) Data from Fig. 1 of Phys.Rev.,C36(1987)1243.
           (COREL,M0879002) Cross section, 4PiA0
HISTORY    (20210620A) Corrected by SD and VV: REACTION
            (SF8=LEG/RS0->LEG/RS), STATUS added, DATA (data from
            SUBENT 004 added).
ENDBIB               6
NOCOMMON             0          0
DATA                 4         88
NUMBER     EN         DATA       DATA-ERR
NO-DIM     MEV        NO-DIM     NO-DIM
         1.      14.47      -0.26        .08
         1.       14.6      -0.30        .08
         1.      14.68      -0.22        .17
         1.       14.8      -0.04        .15
         1.      14.87        .10        .22
         1.      15.07        .33        .15
         1.      15.19        .39        .26
         1.      15.27        .26        .26
         1.      15.33      -0.26        .34
         1.       15.4        .03        .08
         1.      15.47        .08        .39
         1.      15.59        .08        .30
         1.      15.69        .43        .24
         1.      15.77        .42        .25
         1.      15.87        .52        .25
         1.        16.        .78        .31
         1.      16.11        .61        .10
         1.      16.19        .30        .15
         1.       16.3      -0.17        .21
         1.      16.38      -0.22        .28
         1.      16.49        .08        .33
         1.      16.66        .34        .14
         1.      16.82        .09        .43
         1.      16.94        .09        .26
         1.       17.1        .26        .26
         1.      17.26      -0.02        .13
         1.      17.42        .19        .16
         1.       17.5      -0.17        .09
         1.      17.63      -0.17        .10
         1.       17.8      -0.16        .11
         1.       17.9      -0.18        .11
         1.        18.        .04        .70
         1.      18.13        .09        .12
         1.      18.29      -0.09        .09
         1.      18.44        .09        .17
         1.       18.6        .06        .12
         1.      18.72      -0.02        .26
         1.      18.81        .09        .13
         1.        19.        .08        .12
         1.       19.2        .25        .17
         1.       19.4        .39        .23
         1.       19.6        .34        .16
         1.       19.8        .61        .15
         1.        20.        .74        .22
         2.      14.47      -0.48        .17
         2.       14.6      -0.61        .18
         2.      14.68      -0.33        .14
         2.       14.8      -0.26        .13
         2.      14.87      -0.10        .19
         2.      15.07        .30        .22
         2.      15.19        .61        .37
         2.      15.27       1.05        .39
         2.      15.33        .08        .33
         2.       15.4      -0.30        .45
         2.      15.47        .35        .35
         2.      15.59        .60        .39
         2.      15.69        .34        .37
         2.      15.77        .52        .38
         2.      15.87        .34         .4
         2.        16.        .19        .57
         2.      16.11        .07        .21
         2.      16.19        .12        .18
         2.       16.3        .3         .3
         2.      16.38      -0.13        .86
         2.      16.49      -0.01        .43
         2.      16.66      -0.13        .56
         2.      16.82       0.00        .83
         2.      16.94       0.00        .43
         2.       17.1        .52        .26
         2.      17.26      -0.09        .43
         2.      17.42      -0.10        .54
         2.       17.5      -0.35        .26
         2.      17.63      -0.60         .3
         2.       17.8      -0.36        .36
         2.       17.9      -0.60        .27
         2.        18.      -0.83        .45
         2.      18.13      -0.60        .22
         2.      18.29      -0.34        .25
         2.      18.44      -0.56        .35
         2.       18.6      -0.78        .23
         2.      18.72      -0.68        .53
         2.      18.81      -0.30        .18
         2.        19.      -0.62        .30
         2.       19.2      -0.74        .31
         2.       19.4      -0.83        .47
         2.       19.6      -1.09        .26
         2.       19.8      -1.13        .33
         2.        20.      -1.07        .42
ENDDATA             90
ENDSUBENT          101
NOSUBENT      M0879004   20210620   20210810   20210810       M113
ENDENTRY             4
