ENTRY            M0879   20140904   20150311   20150305       M076
SUBENT        M0879001   20140904   20150311   20150305       M076
BIB                 16         28
TITLE      Ground-state photoneutron reactions in O-18.
AUTHOR     (J.W.Jury,P.C.-K.Kuo,K.G.McNeill,C.K.Ross,H.R.Weller,
            S.Raman)
REFERENCE  (J,PR/C,36,1243,1987)
           #doi:10.1103/PhysRevC.36.1243
INSTITUTE  (1CANOTC,1USADKE,1USAOAU)
FACILITY   (LINAC,1CANOTC)
INC-SOURCE (KINDT)
           The neutron time-of-flight spectra were converted  to
            center-of-mass energy  spectra with relativistically
            exact kinematic relations
METHOD     (TOF)
DETECTOR   (SCIN)
SAMPLE     The 18O sample in form of 60g of H2-18O (99.5% purity)
            contained in  a  thin-walled  right  circular  glass
            cylinder.
ANALYSIS   The cross section scale of the total integrated cross
            section was  determined  from  the  deuterium   data
            (measured at  the  same  time  as the 18O) by use of
            calculations by Arenhovel et. al. and Partovi.
ERR-ANALYS (DATA-ERR) No information on source of uncertainties.
EN-SEC     (E-LVL,8-O-15)
MONITOR    (1-H-2(G,N)1-H-1,,SIG)
MONIT-REF  (,H.Arenhovel+,J,PL/B,52,303,1974) for Eg < 10 MeV.
           (,F.Partovi,J,AP,27,79,1964) FOR EG > 10 MEV.
STATUS     (CURVE) Data from Fig. 1.
HISTORY    (20140904C) Data were compiled at the Russia MSU SINP
            CDFE by V.Varlamov.
ENDBIB              28
COMMON               1          3
E-LVL
MEV
 0.0
ENDCOMMON            3
ENDSUBENT           35
SUBENT        M0879002   20140904   20150311   20150305       M076
BIB                  1          1
REACTION   (8-O-18(G,N)8-O-17,PAR,SIG)
ENDBIB               1
NOCOMMON             0          0
DATA                 3         66
EN         DATA       DATA-ERR
MEV        MB         MB
 14.47       2.48        .43
 14.6        2.55        .4
 14.68       2.97        .49
 14.8        3.67        .45
 14.87       3.53        .4
 15.07       3.42        .27
 15.19       2.94        .43
 15.27       1.82        .24
 15.33       1.28        .25
 15.4         .85        .35
 15.47        .86        .28
 15.59        .87        .29
 15.69        .61        .27
 15.77        .95        .58
 15.87       1.2         .55
 16.         1.25        .64
 16.11       1.67        .24
 16.19        .92        .25
 16.3         .7         .17
 16.38        .7         .21
 16.49        .83        .45
 16.66        .69        .13
 16.82        .86        .48
 16.94        .75        .16
 17.1        1.26        .28
 17.26       1.42        .67
 17.42       1.1         .6
 17.5        1.22        .36
 17.63       1.13        .35
 17.8        1.66        .55
 17.9        1.18        .21
 18.          .8         .4
 18.13       1.33        .5
 18.29       1.74        .7
 18.44       1.39        .97
 18.6        1.26        .32
 18.72       1.24        .53
 18.81       1.39        .34
 19.         1.2         .35
 19.2        1.15        .37
 19.4         .83        .27
 19.6         .72        .26
 19.8         .8         .18
 20.          .59        .24
 20.28       1.6         .37
 20.52       1.34        .42
 20.75       1.24        .33
 21.         1.25        .34
 21.27       1.18        .24
 21.5        1.18        .4
 21.71       1.23        .43
 22.         1.23        .33
 22.3        1.13        .41
 22.52        .9         .32
 22.78        .86        .24
 23.         1.12        .13
 23.3         .95        .16
 23.54       1.          .15
 23.81        .86        .2
 24.          .7         .17
 24.29        .69        .13
 24.51        .69        .11
 24.77        .68        .1
 25.          .6         .11
 25.26        .48        .1
 25.52        .49        .13
ENDDATA             68
ENDSUBENT           74
SUBENT        M0879003   20140904   20150311   20150305       M076
BIB                  1          1
REACTION   (8-O-18(G,N)8-O-17,PAR,DA,,LEG/RS0)
ENDBIB               1
COMMON               1          3
NUMBER
NO-DIM
  1.
ENDCOMMON            3
DATA                 3         44
EN         DATA       DATA-ERR
MEV        NO-DIM     NO-DIM
 14.47      -0.26        .08
 14.6       -0.3         .08
 14.68      -0.22        .17
 14.8       -0.04        .15
 14.87        .1         .22
 15.07        .33        .15
 15.19        .39        .26
 15.27        .26        .26
 15.33      -0.26        .34
 15.4         .03        .08
 15.47        .08        .39
 15.59        .08        .3
 15.69        .43        .24
 15.77        .42        .25
 15.87        .52        .25
 16.          .78        .31
 16.11        .61        .1
 16.19        .3         .15
 16.3       -0.17        .21
 16.38      -0.22        .28
 16.49        .08        .33
 16.66        .34        .14
 16.82        .09        .43
 16.94        .09        .26
 17.1         .26        .26
 17.26      -0.02        .13
 17.42        .19        .16
 17.5       -0.17        .09
 17.63      -0.17        .1
 17.8       -0.16        .11
 17.9       -0.18        .11
 18.          .04        .7
 18.13        .09        .12
 18.29      -0.09        .09
 18.44        .09        .17
 18.6         .06        .12
 18.72      -0.02        .26
 18.81        .09        .13
 19.          .08        .12
 19.2         .25        .17
 19.4         .39        .23
 19.6         .34        .16
 19.8         .61        .15
 20.          .74        .22
ENDDATA             46
ENDSUBENT           56
SUBENT        M0879004   20140904   20150311   20150305       M076
BIB                  1          1
REACTION   (8-O-18(G,N)8-O-17,PAR,DA,,LEG/RS0)
ENDBIB               1
COMMON               1          3
NUMBER
NO-DIM
  2.
ENDCOMMON            3
DATA                 3         44
EN         DATA       DATA-ERR
MEV        NO-DIM     NO-DIM
 14.47      -0.48        .17
 14.6       -0.61        .18
 14.68      -0.33        .14
 14.8       -0.26        .13
 14.87      -0.1         .19
 15.07        .3         .22
 15.19        .61        .37
 15.27       1.05        .39
 15.33        .08        .33
 15.4       -0.3         .45
 15.47        .35        .35
 15.59        .6         .39
 15.69        .34        .37
 15.77        .52        .38
 15.87        .34        .4
 16.          .19        .57
 16.11        .07        .21
 16.19        .12        .18
 16.3         .3         .3
 16.38      -0.13        .86
 16.49      -0.01        .43
 16.66      -0.13        .56
 16.82       0.0         .83
 16.94       0.0         .43
 17.1         .52        .26
 17.26      -0.09        .43
 17.42      -0.1         .54
 17.5       -0.35        .26
 17.63      -0.6         .3
 17.8       -0.36        .36
 17.9       -0.6         .27
 18.        -0.83        .45
 18.13      -0.6         .22
 18.29      -0.34        .25
 18.44      -0.56        .35
 18.6       -0.78        .23
 18.72      -0.68        .53
 18.81      -0.3         .18
 19.        -0.62        .3
 19.2       -0.74        .31
 19.4       -0.83        .47
 19.6       -1.09        .26
 19.8       -1.13        .33
 20.        -1.07        .42
ENDDATA             46
ENDSUBENT           56
ENDENTRY             4
