ENTRY            12902     850424
SUBENT        12902001     850424              20050926       0000
BIB                 12         19
INSTITUTE  (1USAORL)
REFERENCE  (J,PR/C,30,807,8409)
AUTHOR     (S.KAHANE,S.RAMAN,G.G.SLAUGHTER,C.COCEVA,M.STEFANON)
TITLE      ELECTRIC DIPOLE TRANSITIONS FROM NEUTRON CAPTURE IN
           167-ER RESONANCES
FACILITY   (LINAC) ORELA
METHOD     (TOF)
INC-SOURCE (EVAP)
DETECTOR   (GELI) SHIELDED 65-CM**3 GE(LI) DETECTOR
                  THE RELATIVE DETECTION EFFICIENCY VS GAMMA
                  ENERGY WAS CALIBRATED WITH THE AID OF THE
                  N-14(N,G),CL-35,37(N,G) AND CR-53(N,G)
                  REACTIONS WITH A RA-226 SOURCE.
SAMPLE     91.7 PERCENT ENRICHED ER-167
ANALYSIS   THE 816 KEV TRANSITION DEEXCITING THE FIRST 3+ LEVEL
             AT 895.8 KEV WAS CHOSEN FOR NORMALIZATION PURPOSES
             IN ORDER TO DETERMINE THE PARTIAL CAPTURE WIDTHS.
STATUS     NO REPLY TO AUTHOR PROOF.
HISTORY    (841010C)
ENDBIB              19
NOCOMMON             0          0
ENDSUBENT           22
SUBENT        12902002     850424              20050926       0000
BIB                  3          4
REACTION   (68-ER-167(N,0),,J)
FLAG       (1.) DOUBTFUL.
           (2.) BASED ON A PRIMARY GAMMA TO THE 1404 KEV 2- LEVEL
ERR-ANALYS NO INFORMATION AVAILABLE.
ENDBIB               4
NOCOMMON             0          0
DATA                 3         83
EN-RES     DATA       FLAG
EV         NO-DIM     NO-DIM
   5.98    3.
   7.95    4.         1.
   9.37    3.
  20.23    4.
  26.64    3.
  27.42    4.
  32.88    4.
  37.59    4.
  39.43    3.
  42.23    3.
  50.19    4.
  53.60    4.         1.
  59.96    3.
  62.07    4.
  62.78    3.         1.
  69.43    4.
  74.37    4.
  75.77    4.
  79.29    3.
  85.42    3.
  91.2     4.
  94.8     4.         1.
  97.5     4.
 107.6     3.
 115.6     3.
 131.6     4.
 142.3     4.
 157.8     3.
 159.4     4.
 162.2     4.
 165.1     4.
 166.8     3.
 168.5     3.
 171.1     3.
 176.8     4.
 178.5     4.
 184.7     4.
 191.3     4.
 196.0     3.
 209.9     3.         2.
 217.2     4.
 223.3     4.
 228.7     4.
 235.5     3.
 237.9     4.
 247.3     4.
 249.2     4.
 258.2     4.
 263.3     4.
 274.5     3.
 279.9     4.
 282.5     4.
 288.8     4.         1.
 309.5     3.
 314.2     4.         1.
 327.2     4.
 331.6     3.
 335.1     4.
 343.3     4.
 346.5     3.
 349.7     4.
 363.7     4.
 368.3     4.
 381.8     3.
 387.6     3.
 399.6     4.
 408.0     4.
 422.7     4.
 429.0     3.
 437.2     4.
 446.6     4.
 466.6     4.
 473.6     4.
 480.0     3.
 485.4     4.
 498.8     4.
 508.1     4.
 531.5     4.
 542.3     4.
 556.8     4.         1.
 562.8     3.
 571.5     4.
 590.1     4.
ENDDATA             85
ENDSUBENT           94
SUBENT        12902003     850424              20050926       0000
BIB                  2          2
REACTION   (68-ER-167(N,G),PAR,WID)
ERR-ANALYS (DATA-ERR) NO INFORMATION AVAILABLE.
ENDBIB               2
NOCOMMON             0          0
DATA                 4        373
EN-RES     E          DATA       DATA-ERR
EV         KEV        MILLI-EV   MILLI-EV
   6.0      6677.      0.95       0.17
   6.0      6339.      0.15       0.04
   6.0      6229.      1.40       0.17
   6.0      6156.      0.42       0.07
   6.0      6137.      0.77       0.08
   6.0      5943.      0.48       0.14
   7.9      6677.      0.55       0.03
   7.9      6339.      0.24       0.16
   7.9      6229.      0.49       0.05
   7.9      6137.      0.47       0.37
   7.9      5943.      0.42       0.10
   9.4      6677.      0.42       0.04
   9.4      6339.      0.34       0.17
   9.4      6229.      0.19       0.05
   9.4      6137.      0.20       0.14
   9.4      5943.      0.18       0.03
  15.4      6677.      0.33       0.17
  15.4      6229.      2.21       0.30
  15.4      6156.      0.21       0.07
  15.4      6137.      0.10       0.04
  15.4      5943.      0.24       0.19
  20.2      6677.      1.07       0.07
  20.2      6339.      0.16       0.05
  20.2      6229.      0.84       0.15
  20.2      6156.      0.44       0.04
  20.2      6137.      0.34       0.03
  20.2      5943.      0.17       0.03
  26.6      6677.      0.77       0.04
  26.6      6339.      0.55       0.05
  26.6      6229.      0.52       0.22
  26.6      6156.      0.32       0.06
  26.6      6137.      0.31       0.07
  27.4      6677.      0.29       0.10
  27.4      6339.      0.18       0.11
  27.4      6229.      0.36       0.18
  27.4      6137.      0.28       0.10
  27.4      5943.      0.33       0.06
  28.6      6677.      0.32       0.18
  28.6      6339.      0.67       0.14
  28.6      6229.      0.39       0.03
  28.6      6137.      0.31       0.03
  28.6      5943.      0.31       0.13
  32.9      6677.      0.25       0.03
  32.9      6339.      0.06       0.01
  32.9      6229.      0.30       0.05
  32.9      6137.      0.56       0.17
  32.9      5943.      0.11       0.01
  37.6      6677.      0.87       0.05
  37.6      6339.      0.15       0.05
  37.6      6229.      0.50       0.04
  39.4      6677.      2.06       0.32
  39.4      6339.      0.20       0.04
  39.4      6229.      0.48       0.06
  39.4      6156.      0.55       0.05
  39.4      5943.      0.71       0.25
  42.2      6677.      0.20       0.10
  42.2      6339.      0.21       0.08
  42.2      6229.      1.51       0.29
  42.2      6137.      0.24       0.10
  42.2      5943.      0.18       0.20
  50.2      6677.      0.28       0.19
  50.2      6339.      0.15       0.05
  50.2      6229.      0.19       0.06
  50.2      6156.      0.38       0.04
  50.2      6137.      0.68       0.14
  53.6      6677.      1.51       0.28
  53.6      6339.      0.09       0.07
  53.6      6229.      0.58       0.04
  53.6      6137.      0.34       0.09
  53.6      5943.      0.22       0.03
  60.0      6677.      0.20       0.05
  60.0      6339.      0.15       0.06
  60.0      6229.      0.87       0.09
  60.0      6156.      0.23       0.10
  60.0      6137.      1.04       0.21
  60.0      5943.      0.13       0.10
  62.1      6677.      0.24       0.06
  62.1      6339.      0.18       0.07
  62.1      6229.      0.61       0.10
  62.1      6156.      0.46       0.08
  62.1      6137.      0.43       0.24
  62.1      5943.      0.20       0.08
  62.8      6677.      0.11       0.08
  62.8      6339.      0.24       0.06
  62.8      6229.      0.21       0.05
  62.8      6156.      0.59       0.10
  62.8      6137.      0.13       0.06
  62.8      5943.      0.45       0.14
  69.4      6677.      0.13       0.10
  69.4      6339.      0.21       0.08
  69.4      6229.      0.63       0.35
  69.4      6156.      0.18       0.05
  69.4      6137.      0.34       0.08
  69.4      5943.      0.39       0.20
  74.4      6677.      0.61       0.28
  74.4      6339.      0.25       0.05
  74.4      6229.      0.73       0.09
  74.4      6137.      0.44       0.08
  75.8      6229.      0.42       0.32
  79.3      6677.      0.19       0.08
  79.3      6339.      1.14       0.11
  79.3      6229.      1.01       0.07
  79.3      6137.      0.42       0.15
  79.3      5943.      0.40       0.06
  85.4      6677.      0.28       0.25
  85.4      6339.      1.20       0.13
  85.4      6229.      0.34       0.04
  85.4      6137.      0.48       0.05
  85.4      5943.      0.69       0.14
  91.2      6677.      0.47       0.31
  91.2      6229.      0.59       0.10
  91.2      6156.      0.32       0.03
  91.2      6137.      0.64       0.19
  94.8      6677.      0.15       0.08
  94.8      6229.      0.30       0.14
  94.8      6137.      0.30       0.14
  97.5      6229.      0.70       0.25
  97.5      6137.      0.55       0.24
 107.6      6677.      0.67       0.27
 107.6      6339.      0.31       0.26
 107.6      6229.      3.53       0.37
 107.6      6137.      0.35       0.05
 107.6      5943.      0.27       0.05
 115.6      6677.      0.71       0.34
 115.6      6339.      0.43       0.05
 115.6      6229.      0.42       0.06
 115.6      5943.      0.50       0.25
 131.6      6677.      1.18       0.23
 131.6      6339.      0.16       0.05
 131.6      6229.      0.71       0.25
 131.6      6156.      1.69       0.13
 131.6      6137.      0.40       0.15
 142.3      6677.      0.21       0.09
 142.3      6339.      0.52       0.15
 142.3      6229.      1.06       0.18
 142.3      6156.      0.25       0.05
 142.3      5943.      0.19       0.06
 157.8      6677.      0.23       0.05
 157.8      6229.      2.84       0.35
 157.8      6156.      0.41       0.18
 157.8      6137.      0.20       0.04
 157.8      5943.      0.50       0.05
 159.4      6677.      2.77       0.40
 159.4      6339.      0.68       0.48
 159.4      6229.      0.52       0.13
 159.4      6156.      0.57       0.32
 159.4      6137.      0.30       0.04
 162.2      6677.      0.70       0.38
 162.2      6339.      0.17       0.06
 162.2      6229.      0.18       0.09
 162.2      6137.      0.98       0.06
 165.1      6677.      0.26       0.11
 165.1      6339.      0.23       0.14
 165.1      6229.      0.35       0.05
 165.1      6156.      0.28       0.14
 165.1      6137.      0.55       0.32
 166.8      6677.      0.45       0.04
 166.8      6339.      0.47       0.20
 166.8      6137.      0.26       0.04
 166.8      5943.      0.40       0.12
 168.5      6677.      0.20       0.07
 168.5      6339.      0.43       0.18
 168.5      6229.      0.46       0.13
 168.5      6156.      0.31       0.03
 168.5      6137.      0.26       0.14
 168.5      5943.      0.68       0.07
 171.1      6339.      0.70       0.16
 171.1      6229.      1.89       0.66
 171.1      5943.      1.29       0.18
 176.8      6677.      1.27       0.19
 176.8      6339.      0.91       0.29
 176.8      5943.      0.31       0.13
 178.5      6677.      0.46       0.10
 178.5      6229.      0.51       0.12
 178.5      6156.      0.59       0.09
 178.5      6137.      0.33       0.09
 184.7      6677.      0.31       0.12
 184.7      6339.      1.64       0.58
 184.7      6229.      0.78       0.17
 184.7      6156.      0.37       0.08
 184.7      6137.      0.35       0.12
 184.7      5943.      0.28       0.11
 191.0      6677.      0.20       0.12
 191.0      6229.      1.09       0.39
 191.0      6156.      0.38       0.06
 191.0      6137.      0.32       0.11
 196.0      6339.      0.52       0.31
 196.0      6229.      0.34       0.13
 196.0      6156.      0.43       0.16
 196.0      6137.      0.59       0.07
 209.9      6677.      0.42       0.08
 209.9      6229.      0.77       0.05
 209.9      6137.      0.44       0.21
 209.9      5943.      1.00       0.27
 217.2      6156.      1.13       0.18
 217.2      6137.      0.44       0.12
 223.3      6677.      1.16       0.50
 223.3      6339.      0.57       0.26
 223.3      6229.      0.63       0.13
 223.3      6137.      0.64       0.34
 223.3      5943.      0.30       0.07
 228.7      6677.      0.62       0.06
 228.7      6229.      0.87       0.05
 228.7      6156.      0.19       0.06
 228.7      6137.      0.27       0.09
 228.7      5943.      0.32       0.10
 235.5      6677.      0.61       0.31
 235.5      6339.      0.59       0.28
 235.5      6229.      0.48       0.05
 235.5      6156.      0.51       0.05
 235.5      6137.      0.54       0.12
 235.5      5943.      0.49       0.23
 237.9      6677.      0.29       0.04
 237.9      6339.      0.40       0.09
 237.9      6229.      0.91       0.36
 237.9      6137.      0.38       0.09
 247.3      6677.      1.09       0.38
 247.3      6229.      0.55       0.12
 247.3      6156.      0.49       0.15
 247.3      6137.      0.63       0.24
 247.3      5943.      0.63       0.11
 249.2      6677.      0.60       0.12
 249.2      6229.      0.39       0.26
 249.2      6156.      0.90       0.33
 249.2      6137.      0.69       0.24
 258.2      6677.      0.33       0.19
 258.2      6229.      0.46       0.31
 258.2      6156.      0.54       0.21
 258.2      6137.      0.50       0.08
 258.2      5943.      0.54       0.14
 274.5      6339.      0.34       0.07
 274.5      6229.      0.94       0.25
 274.5      6156.      1.87       0.74
 274.5      6137.      0.50       0.26
 279.9      6156.      0.29       0.14
 279.9      6137.      0.89       0.38
 282.5      6677.      0.43       0.05
 282.5      6229.      1.00       0.11
 282.5      6156.      0.56       0.16
 282.5      6137.      0.84       0.24
 288.8      6677.      1.47       0.16
 288.8      6339.      1.06       0.93
 288.8      6156.      0.71       0.30
 288.8      6137.      0.95       0.19
 288.8      5943.      0.92       0.11
 309.5      6339.      0.90       0.45
 309.5      6229.      2.62       0.28
 309.5      6156.      0.98       0.46
 309.5      6137.      0.27       0.10
 309.5      5943.      0.90       0.40
 314.2      6156.      0.85       0.13
 314.2      6137.      0.66       0.13
 314.2      5943.      0.76       0.26
 319.4      6677.      0.47       0.14
 319.4      6339.      0.31       0.05
 319.4      6229.      0.73       0.28
 319.4      6156.      0.41       0.21
 319.4      6137.      0.34       0.06
 319.4      5943.      0.43       0.09
 327.2      6677.      0.24       0.16
 327.2      6339.      0.63       0.19
 327.2      6229.      0.83       0.26
 327.2      6137.      0.60       0.19
 327.2      5943.      0.39       0.16
 331.6      6339.      0.48       0.20
 331.6      6229.      0.98       0.19
 331.6      6156.      0.41       0.16
 331.6      6137.      0.33       0.07
 331.6      5943.      0.62       0.11
 335.1      6339.      0.49       0.09
 335.1      6229.      0.59       0.08
 335.1      6156.      0.58       0.21
 335.1      6137.      0.55       0.47
 335.1      5943.      0.62       0.43
 343.3      6677.      0.53       0.12
 343.3      6339.      0.34       0.05
 343.3      6156.      0.46       0.17
 343.3      6137.      0.29       0.11
 343.3      5943.      0.56       0.06
 346.5      6677.      0.65       0.47
 346.5      6339.      0.33       0.12
 346.5      6137.      0.48       0.07
 346.5      5943.      0.63       0.11
 349.7      6677.      0.47       0.07
 349.7      6339.      0.34       0.19
 349.7      6156.      0.36       0.07
 349.7      6137.      0.68       0.07
 349.7      5943.      0.43       0.31
 363.7      6229.      1.27       0.15
 363.7      6156.      0.40       0.11
 363.7      6137.      0.76       0.25
 363.7      5943.      0.55       0.29
 368.3      6677.      0.91       0.09
 368.3      6339.      0.17       0.06
 368.3      6229.      0.64       0.18
 368.3      6137.      1.06       0.28
 381.8      6677.      0.95       0.31
 381.8      6229.      0.70       0.50
 381.8      6156.      1.01       0.35
 381.8      5943.      0.42       0.24
 387.6      6677.      1.28       0.23
 387.6      6156.      1.09       0.53
 387.6      5943.      1.04       0.11
 399.6      6677.      0.43       0.30
 399.6      6339.      0.45       0.37
 399.6      6137.      0.76       0.12
 399.6      5943.      0.69       0.34
 408.0      6677.      0.63       0.29
 408.0      6156.      0.80       0.18
 408.0      5943.      0.79       0.19
 422.7      6677.      2.84       0.31
 422.7      6229.      0.83       0.28
 422.7      6137.      1.04       0.37
 422.7      5943.      0.80       0.51
 429.0      6339.      0.43       0.14
 429.0      6156.      0.80       0.42
 437.2      6677.      0.59       0.09
 437.2      6339.      0.54       0.10
 437.2      6229.      0.44       0.08
 437.2      6137.      0.55       0.10
 446.6      6677.      2.82       0.30
 446.6      6229.      0.36       0.06
 446.6      6137.      0.42       0.06
 446.6      5943.      0.52       0.42
 466.6      6677.      0.69       0.38
 466.6      6339.      0.60       0.44
 466.6      6156.      0.61       0.10
 466.6      5943.      1.08       0.41
 473.6      6339.      0.37       0.04
 473.6      6229.      0.87       0.13
 473.6      6156.      0.46       0.12
 473.6      6137.      0.41       0.16
 480.0      6339.      0.75       0.19
 480.0      6229.      0.43       0.26
 480.0      6137.      0.60       0.07
 485.4      6339.      0.56       0.06
 485.4      6229.      0.76       0.54
 485.4      6156.      0.80       0.20
 485.4      6137.      0.55       0.13
 485.4      5943.      0.67       0.57
 498.8      6677.      0.17       0.10
 498.8      6156.      0.45       0.30
 498.8      6137.      0.37       0.10
 508.1      6677.      1.38       0.33
 508.1      6137.      0.47       0.22
 508.1      5943.      0.51       0.21
 531.5      6677.      0.56       0.22
 531.5      6339.      0.41       0.08
 531.5      6229.      1.36       0.30
 531.5      5943.      0.76       0.76
 542.3      6229.      0.70       0.13
 542.3      6156.      0.60       0.06
 542.3      6137.      0.69       0.11
 542.3      5943.      0.84       0.56
 556.8      6677.      0.33       0.14
 556.8      6339.      0.50       0.13
 556.8      6156.      0.83       0.29
 556.8      6137.      0.71       0.12
 556.8      5943.      0.32       0.03
 562.8      6677.      0.86       0.55
 562.8      6229.      0.54       0.69
 562.8      6156.      0.92       0.12
 562.8      6137.      0.66       0.22
 571.5      6677.      0.40       0.18
 571.5      6339.      0.57       0.06
 571.5      6229.      0.55       0.18
 571.5      6156.      0.49       0.07
 571.5      6137.      0.47       0.26
 590.1      6677.      0.94       0.14
 590.1      6229.      1.09       0.44
 590.1      6156.      1.14       0.30
 590.1      6137.      0.60       0.18
 590.1      5943.      0.40       0.10
ENDDATA            375
ENDSUBENT          382
ENDENTRY             3
