ENTRY            C1531   20070321   20070720   20070716       C080
SUBENT        C1531001   20070321   20070720   20070716       C080
BIB                  9         14
INSTITUTE  (1USAORL)
REFERENCE  (J,PL/B,51,341,1974)
AUTHOR     (M.L.Halbert,C.B.Fulmer,S.Raman,M.J.Saltmarsh,
            A.H.Snell,P.H.Stelson)
TITLE      Elastic scattering of 160 by 160
FACILITY   (CYCLO,1USAORL) Oak Ridge Isochronous Cyclotron (ORIC)
INC-SPECT  16O ions were accelerated in their 2+, 3+, 4+, 5+, or
            6+ charge states.
SAMPLE     The targets, prepared by argon-ion bombardment of
            quartz, were self-supporting and had thicknesses in
            the range 60-100 microg/cm2
DETECTOR   (SIBAR) The detectors were 10 x 50 mm Si surface-
            barrier counters 10 cm from the target,
HISTORY    (20070321C) DR
ENDBIB              14
NOCOMMON             0          0
ENDSUBENT           17
SUBENT        C1531002   20070321   20070720   20070716       C080
BIB                  3          6
REACTION   (8-O-16(8-O-16,EL)8-O-16,,DA)
ERR-ANALYS (ERR-S) Statistical error
           (ERR-SYS) The uncertainty in the absolute cross
            sections is dominated by the error in the oxygen
            content of the targets, estimated to be about  15 %.
STATUS     (CURVE) Data taken from Fig. 1
ENDBIB               6
COMMON               2          3
ANG-CM     ERR-SYS
ADEG       PER-CENT
90.        15.
ENDCOMMON            3
DATA                 3         99
EN-CM      DATA-CM    ERR-S
MEV        MB/SR      MB/SR
 3.5185E+01  8.761E-01
 3.5664E+01  5.146E-01
 3.6192E+01  2.737E-01
 3.6894E+01  1.224E+00
 3.6990E+01  1.098E+00
 3.7040E+01  8.531E-01
 3.7369E+01  1.327E+00
 3.7845E+01  1.316E+00
 3.7893E+01  1.202E+00
 3.8086E+01  8.768E-01
 3.8180E+01  9.509E-01
 3.8374E+01  6.280E-01
 3.8515E+01  7.590E-01
 3.8807E+01  3.025E-01
 3.9089E+01  4.835E-01
 3.9376E+01  3.825E-01
 3.9616E+01  2.866E-01
 4.0383E+01  1.320E-01
 4.1282E+01  2.351E-01
 4.1331E+01  1.928E-01
 4.1852E+01  2.620E-01
 4.1899E+01  2.894E-01
 4.2277E+01  4.382E-01
 4.2512E+01  5.849E-01
 4.2515E+01  4.152E-01
 4.3036E+01  5.542E-01
 4.3082E+01  6.519E-01
 4.3083E+01  6.010E-01
 4.3129E+01  7.199E-01
 4.3796E+01  6.012E-01
 4.3845E+01  5.346E-01
 4.4367E+01  6.013E-01
 4.4605E+01  5.696E-01
 4.4890E+01  6.068E-01
 4.5034E+01  5.159E-01
 4.5796E+01  4.426E-01
 4.6284E+01  8.571E-02  7.396E-03
 4.6628E+01  1.918E-02  2.427E-03
 4.7539E+01  7.110E-03  1.011E-03
 4.7773E+01  1.106E-02  1.135E-03
 4.8671E+01  2.631E-02
 4.9471E+01  8.349E-02
 4.9568E+01  6.724E-02
 5.0324E+01  1.209E-01
 5.1177E+01  1.881E-01
 5.1796E+01  1.673E-01
 5.2319E+01  1.832E-01
 5.2804E+01  4.908E-02
 5.3426E+01  2.883E-02
 5.3428E+01  2.239E-02
 5.4000E+01  1.956E-02
 5.4146E+01  1.257E-02  1.290E-03
 5.4713E+01  2.220E-02
 5.5092E+01  2.430E-02
 5.5903E+01  1.871E-02  1.767E-03
 5.6618E+01  1.562E-02
 5.6804E+01  2.520E-02
 5.6949E+01  1.940E-02
 5.7089E+01  2.661E-02
 5.7326E+01  3.304E-02
 5.7896E+01  3.488E-02
 5.7990E+01  3.958E-02
 5.7991E+01  3.716E-02
 5.8467E+01  3.520E-02
 5.8470E+01  2.410E-02
 5.9133E+01  3.246E-02
 5.9136E+01  2.367E-02
 5.9517E+01  2.013E-02
 5.9659E+01  2.389E-02
 5.9899E+01  1.742E-02
 6.0281E+01  1.416E-02
 6.0903E+01  8.318E-03  7.857E-04
 6.1287E+01  5.111E-03  7.660E-04
 6.2099E+01  3.227E-03  2.784E-04
 6.2667E+01  4.800E-03
 6.2760E+01  6.235E-03  7.758E-04
 6.3280E+01  9.359E-03
 6.3518E+01  9.880E-03
 6.4465E+01  1.638E-02  1.546E-03
 6.5132E+01  1.580E-02
 6.5654E+01  1.809E-02
 6.5747E+01  2.226E-02
 6.6177E+01  1.745E-02
 6.6748E+01  1.843E-02
 6.7460E+01  2.035E-02
 6.8030E+01  2.248E-02
 6.8364E+01  2.130E-02
 6.9412E+01  1.554E-02
 7.0032E+01  1.321E-02  1.355E-03
 7.0936E+01  1.286E-02
 7.2126E+01  1.055E-02
 7.2603E+01  9.131E-03  1.369E-03
 7.3940E+01  4.479E-03
 7.4224E+01  5.269E-03  1.249E-03
 7.5232E+01  1.646E-03  5.591E-04
 7.8890E+01  2.658E-03  6.302E-04
 8.1500E+01  6.154E-03  9.225E-04
 8.5538E+01  1.201E-02  2.848E-03
 8.8061E+01  9.506E-03  1.781E-03
ENDDATA            101
ENDSUBENT          116
ENDENTRY             2
