ENTRY            D0297   20180522   20180629   20180629       D117
SUBENT        D0297001   20180522   20180629   20180629       D117
BIB                 14         30
TITLE      Nuclear spectroscopy of 24Na via (d,p) and (n,g)
            reactions
AUTHOR     (I.Tomandl, J.Novak, V.Burjan, S.Raman, T.von Egidy,
            H.-F.Wirth, U.Koester, W.Schauer, J.W.Starner,
            E.T.Jurney, G.Graw, R.Hertenberger, A.Gollwitzer,
            B.Valnion, A.Metz)
INSTITUTE  (3CZRUJF,1USAORL,2GERMUN,1USALAS,2GERLMU)
REFERENCE  (J,PR/C,69,014312,2004)
REL-REF    (O,13900001,I.Tomandl+,J,PR/C,69,014312,2004)
            (n,g) data from this experimental work
FACILITY   (VDGT,2GERLMU)
SAMPLE     80 ug/cm2 of NaF material (43.81 ug/cm2 of 23Na) on a
            4.2 ug/cm2 carbon backing
METHOD     All spectra were normalized with respect to the beam
            current accumulated by a Faraday cup.
DETECTOR   (MAGSP) Q3D spectrograph with a high resolution focal
            plane detector
ERR-ANALYS (DATA-ERR) Experimental error
           (E-ERR) Only statistical error given for energy
COMMENT    By author:
            The intrinsic eficiency of the detection system in
            Garching is considered to be very close to 100%. Thus
            a total efficiency of detection is given by solid
            angle.
FLAG       (1.) Unresolved doublet
           (2.) Probable levels
STATUS     (TABLE) Tables from Dr.Ivo Tomandl
           (APRVD) Entry approved by Dr. Ivo Tomandl
HISTORY    (20050308C) SD
           (20180522U) On. AUTHOR corrected.
ENDBIB              30
COMMON               2          3
EN         EN-RSL-FW
MEV        KEV
 17.0       8.
ENDCOMMON            3
ENDSUBENT           37
SUBENT        D0297002   20050308   20050810   20050926       D041
BIB                  2          2
REACTION   (11-NA-23(D,P)11-NA-24,PAR,DA)
EN-SEC     (E-EXC,11-NA-24)
ENDBIB               2
NOCOMMON             0          0
DATA                 6        300
E-EXC      E-ERR      ANG-CM     DATA-CM    DATA-ERR   FLAG
KEV        KEV        ADEG       MB/SR      MB/SR      NO-DIM
    0.0                 12.6331     2.47435   0.05451
    0.0                 21.0414     1.4165    0.07675
    0.0                 31.5226     0.92236   0.04028
    0.0                 41.9576     0.33983   0.01895
    0.0                 52.3331     0.29473   0.03592
  472.23     0.12       12.6405     1.32446   0.01636
  472.23     0.12       21.0537     1.03923   0.00936
  472.23     0.12       31.5406     0.58544   0.00708
  472.23     0.12       41.9807     0.22424   0.00421
  472.23     0.12       52.3606     0.19338   0.00219
  562.08     0.19       12.642      1.61408   0.01515
  562.08     0.19       21.0561     0.7843    0.00763
  562.08     0.19       31.5441     0.75454   0.00834
  562.08     0.19       41.9851     0.24104   0.00304
  562.08     0.19       52.366      0.14528   0.00207
 1341.25     0.34       12.655      3.22122   0.03314
 1341.25     0.34       21.0775     0.71838   0.01401
 1341.25     0.34       31.5754     1.95757   0.05546
 1341.25     0.34       42.0254     0.50473   0.02222
 1346.37     0.54       12.6551     2.70809   0.03197    1.0
 1346.37     0.54       21.0777     0.62416   0.01401    1.0
 1346.37     0.54       31.5756     0.58508   0.04989    1.0
 1346.37     0.54       42.0257     0.2195    0.02149    1.0
 1511.82     0.16       12.658      0.0254    0.00211
 1511.82     0.16       21.0824     0.01932   0.00111
 1511.82     0.16       31.5825     0.01639  7.15643E-4
 1511.82     0.16       42.0346     0.01665  7.75357E-4
 1846.33     0.10       12.6639     2.59487   0.01514
 1846.33     0.10       21.0921     0.95559   0.00993
 1846.33     0.10       31.5967     1.08634   0.01236
 1846.33     0.10       42.0528     0.33783   0.00303
 1846.33     0.10       52.4467     0.13968   0.00213
 1885.27     0.14       12.6646     0.73409   0.00821
 1885.27     0.14       21.0933     0.72715   0.00877
 1885.27     0.14       31.5984     0.48957   0.00819
 1885.27     0.14       42.0551     0.18571   0.00303
 1885.27     0.14       52.4494     0.11608   0.00196
 2512.33     0.33       12.6761     0.64662   0.00525
 2512.33     0.33       21.1123     0.50199   0.00759
 2512.33     0.33       31.6262     0.17094   0.00299
 2512.33     0.33       42.0908     0.24926   0.02734
 2512.33     0.33       52.492      0.09552   0.00492
 2563.16     0.35       12.6771     0.35152   0.00463
 2563.16     0.35       21.1139     0.2699    0.00368
 2563.16     0.35       31.6285     0.14072  7.64948E-4
 2563.16     0.35       42.0937     0.07166   0.00271
 2904.06     0.55       12.684      0.29157   0.00696
 2904.06     0.55       31.644      0.08059   0.00316
 2904.06     0.55       42.114      0.02757  8.21739E-4
 2904.06     0.55       52.52       0.03009  4.74783E-4
 2977.70     0.22       12.685      1.64845   0.02429
 2977.70     0.22       21.127      1.29177   0.00813
 2977.70     0.22       31.648      0.35317   0.01525
 2977.70     0.22       42.119      0.14424   0.00237
 2977.70     0.22       52.525      0.1718    0.00144
 3216.57     0.16       12.69       0.02569   0.00115
 3216.57     0.16       21.135      0.03106   0.00117
 3216.57     0.16       31.659      0.02609  8.21739E-4
 3216.57     0.16       42.133      0.01791  5.84348E-4
 3216.57     0.16       52.543      0.01791  6.02609E-4
 3371.55     0.10       12.693      5.95312   0.02152
 3371.55     0.10       21.14       2.0849    0.08264
 3371.55     0.10       31.667      0.43642   0.00321
 3371.55     0.10       42.143      0.56096   0.00195
 3371.55     0.10       52.554      0.23692   0.00132
 3413.05     0.06       12.694      2.63424   0.02546
 3413.05     0.06       21.141      0.99894   0.01161
 3413.05     0.06       31.669      1.01362   0.0082
 3413.05     0.06       42.146      0.3349    0.00237
 3413.05     0.06       52.557      0.10334   0.00131
 3589.31     0.08       12.698      0.50747   0.00577
 3589.31     0.08       21.147      0.19207   0.00349
 3589.31     0.08       31.678      0.1848    0.00351
 3589.31     0.08       42.157      0.06263   0.00119
 3589.31     0.08       52.571      0.01784  6.02609E-4
 3628.58     0.06       12.698      1.75693   0.01156
 3628.58     0.06       21.149      1.31597   0.01507
 3628.58     0.06       31.68       0.51784   0.00584
 3628.58     0.06       42.159      0.17162   0.00237
 3628.58     0.06       52.574      0.16864   0.00181
 3656.10     0.06       12.699      0.65628   0.00692
 3656.10     0.06       21.15       0.52803   0.00928
 3656.10     0.06       31.681      0.27629   0.00467
 3656.10     0.06       42.161      0.08214   0.00153
 3656.10     0.06       52.576      0.06563   0.00108
 3681.13     0.23       12.699      0.02326   0.00163
 3681.13     0.23       21.151      0.01952   0.00243
 3681.13     0.23       31.682      0.01034  9.31304E-4
 3681.13     0.23       42.163      0.00409  3.46957E-4
 3681.13     0.23       52.578      0.00237  3.65217E-4
 3737.62     0.22       12.705      0.17329   0.02402     2.0
 3737.62     0.22       21.1598     0.22642   0.01511     2.0
 3737.62     0.22       31.6956     0.14672   0.00593     2.0
 3737.62     0.22       42.163      0.07258   0.0035      2.0
 3737.62     0.22       52.5983     0.03962   0.01764     2.0
 3745.07     0.13       12.701      11.17461  0.11545
 3745.07     0.13       21.153      2.34824   0.03943
 3745.07     0.13       31.685      0.91324   0.08181
 3745.07     0.13       42.167      0.63562   0.0473
 3745.07     0.13       52.583      0.27906   0.04803
 3884.85     0.32       42.163      0.01233  8.16612E-4
 3884.85     0.32       52.5983     0.01525  6.58374E-4
 3933.60     0.13       12.7048     1.30218   0.01559
 3933.60     0.13       21.1595     0.50327   0.01139
 3933.60     0.13       31.6951     0.20416   0.00818
 3933.60     0.13       52.5976     0.06988   0.00216
 3943.57     0.08       12.705      0.66488   0.01213
 3943.57     0.08       21.1598     0.44173   0.00916
 3943.57     0.08       31.6956     0.16703   0.00355
 3943.57     0.08       52.5983     0.07235   0.0022
 3976.95     0.29       21.161      0.12627   0.00346
 3976.95     0.29       31.6974     0.04479   0.00177
 3976.95     0.29       42.1823     0.04247   0.00328
 3976.95     0.29       52.601      0.01688  9.48287E-4
 4048.25     0.20       12.71       0.03386   0.00144
 4048.25     0.20       21.16       0.01081   7.5527E-4
 4048.25     0.20       31.7        0.00396  5.29017E-4
 4048.25     0.20       42.19       0.00652   0.00123
 4142.59     0.21       12.7094     0.00709    0.00115
 4142.59     0.21       21.167      0.00975    0.00132
 4142.59     0.21       31.7061     0.00661  6.45157E-4
 4142.59     0.21       42.1936     0.00627  5.35043E-4
 4142.59     0.21       52.6145     0.00729  5.42896E-4
 4187.30     0.12       12.7103     1.5792    0.05148
 4187.30     0.12       21.1685     2.058     0.09928
 4187.30     0.12       31.7084     1.51383   0.09147
 4187.30     0.12       42.1964     0.48884   0.00591
 4187.30     0.12       52.6179     0.17547   0.01458
 4196.42     0.16       12.7105     0.3203    0.01532
 4196.42     0.16       21.1688     0.22607   0.02924
 4196.42     0.16       42.197      0.04762   0.01182
 4196.42     0.16       52.6186     0.04383   0.00252
 4207.03     0.08       12.7107     3.1573    0.13086
 4207.03     0.08       21.1692     1.13071   0.06895
 4207.03     0.08       31.7094     0.2898    0.01228
 4207.03     0.08       42.1978     0.33417   0.01121
 4207.03     0.08       52.6179     0.17
 4441.75     0.10       12.716      0.29966   0.01007
 4441.75     0.10       21.1778     0.10588   0.00494
 4441.75     0.10       31.722      0.04877   0.00311
 4441.75     0.10       52.6388     0.01906   0.00151
 4526.87     0.24       12.718      0.58639   0.00807
 4526.87     0.24       21.181      0.22662   0.01388
 4526.87     0.24       31.727      0.09872   0.00572
 4526.87     0.24       42.22       0.07151   0.00164
 4526.87     0.24       52.646      0.03796   0.00215
 4559.07     0.18       12.719      0.23781   0.00575
 4559.07     0.18       21.182      0.1628    0.0103
 4559.07     0.18       31.728      0.0794    0.0042
 4559.07     0.18       52.649      0.0389    0.00276
 4621.12     0.19       12.72       0.08787   0.00807
 4621.12     0.19       21.185      0.07257   0.00752
 4621.12     0.19       31.732      0.03636   0.00327
 4621.12     0.19       42.227      0.01435  4.74783E-4
 4621.12     0.19       52.654      0.0111       8.4E-4
 4693.30     0.15       12.722      0.14978   0.00541
 4693.30     0.15       21.187      0.12322   0.00289
 4693.30     0.15       31.736      0.04016   0.00152
 4693.30     0.15       42.232      0.0302   9.49565E-4
 4693.30     0.15       52.66       0.02955  7.12174E-4
 4750.78     0.17       12.723      1.35532   0.01841
 4750.78     0.17       21.189      0.62432   0.00694
 4750.78     0.17       31.739      0.61588   0.00583
 4750.78     0.17       42.236      0.24201   0.00236
 4750.78     0.17       52.665      0.07828   0.00121
 4889.31     0.18       12.726      0.00464   0.00173
 4889.31     0.18       21.195      0.0107   8.03478E-4
 4889.31     0.18       31.747      0.0122   6.93913E-4
 4889.31     0.18       52.677      0.01523  4.74783E-4
 4908.28     0.16       12.727      0.00683   0.0023
 4908.28     0.16       21.195      0.00661  6.93913E-4
 4908.28     0.16       31.748      0.00858  6.93913E-4
 4908.28     0.16       42.247      0.00884  4.74783E-4
 4908.28     0.16       52.678      0.00957  4.74783E-4
 4938.90     0.13       12.727      0.27415  6.93913E-4
 4938.90     0.13       21.197      0.21491  3.46957E-4
 4938.90     0.13       31.75       0.11373   0.00186
 4938.90     0.13       42.249      0.04485  9.49565E-4
 4938.90     0.13       52.681      0.03386  7.12174E-4
 4973.83     0.12       12.728      0.14545   0.00528
 4973.83     0.12       21.198      0.13272   0.00219
 4973.83     0.12       31.751      0.06713   0.00141
 4973.83     0.12       42.252      0.02684  8.21739E-4
 4973.83     0.12       52.684      0.02049  6.02609E-4
 5027.33     0.49       21.2        0.00604  6.93913E-4
 5027.33     0.49       42.256      0.00884  4.74783E-4
 5027.33     0.49       52.689      0.0132   4.74783E-4
 5044.49     0.17       12.7299     0.13882   0.00948
 5044.49     0.17       21.2008     0.09529   0.00225
 5044.49     0.17       31.7556     0.05716   0.00147
 5044.49     0.17       42.2571     0.02942  9.50478E-4
 5044.49     0.17       52.6902     0.01684  6.10096E-4
 5059.95     0.10       12.7303     1.03941   0.01379
 5059.95     0.10       21.2014     0.4074    0.00462
 5059.95     0.10       31.7564     0.1453    0.00211
 5059.95     0.10       52.6915     0.05491   0.00114
 5117.34     0.08       12.7316     1.34875   0.0187
 5117.34     0.08       21.2036     0.3959    0.00462
 5117.34     0.08       31.7597     0.60937   0.00466
 5117.34     0.08       42.2624     0.28761   0.00301
 5180.55     0.13       12.7331     2.11096   0.01744
 5180.55     0.13       21.2061     2.01783   0.0116
 5180.55     0.13       31.7633     1.3429    0.00815
 5180.55     0.13       42.2671     0.51404   0.00354
 5180.55     0.13       52.7022     0.20726   0.00239
 5192.51     0.14       12.7334     0.47515   0.01093
 5192.51     0.14       21.2066     0.28067   0.00702
 5192.51     0.14       31.764      0.11937   0.0035
 5192.51     0.14       42.268      0.07449   0.00201
 5192.51     0.14       52.7032     0.03975   0.00138
 5245.38     0.12       21.2087     0.16824   0.00255
 5245.38     0.12       31.7672     0.06651   0.0017
 5245.38     0.12       42.2721     0.04574   0.00159
 5245.38     0.12       52.7081     0.02604  8.98983E-4
 5308.10     0.19       12.7363     0.02314   0.0031
 5308.10     0.19       31.7708     0.00823  6.42783E-4
 5308.10     0.19       42.2768     0.00558    5.334E-4
 5308.10     0.19       52.7136     0.00372  3.04774E-4
 5338.86     0.10       12.737      0.37837   0.00804
 5338.86     0.10       31.7726     0.17362   0.00233
 5338.86     0.10       42.2791     0.05531   0.0013
 5338.86     0.10       52.7164     0.03035  6.09548E-4
 5408.29     0.24       12.7387     0.03961   0.00304
 5408.29     0.24       21.2153     0.02927   0.00121
 5408.29     0.24       31.7767     0.02551   0.0018
 5408.29     0.24       42.2844     0.01207   5.8873E-4
 5408.29     0.24       52.7227     0.01133  5.97678E-4
 5454.99     0.21       12.7399     0.07361   0.00517
 5454.99     0.21       42.288      0.00699  4.70948E-4
 5454.99     0.21       52.727      0.00575  3.58643E-4
 5478.88     0.21       12.74       0.22565   0.00573
 5478.88     0.21       31.781      0.1294    0.00407
 5478.88     0.21       42.29       0.04098  8.21739E-4
 5478.88     0.21       52.729      0.02147  4.74783E-4
 5571.57     0.19       12.743      0.09746   0.00413
 5571.57     0.19       21.222      0.08269   0.00173
 5571.57     0.19       31.787      0.06095   0.00139
 5571.57     0.19       52.738      0.02306  9.49565E-4
 5629.27     0.71       21.224      0.03433   0.00276
 5629.27     0.71       31.79       0.01693  9.31304E-4
 5629.27     0.71       52.743      0.01233  4.74783E-4
 5674.46     0.27       21.226      0.03722   0.00289
 5674.46     0.27       31.793      0.04125   0.00301
 5674.46     0.27       42.305      0.01813  7.12174E-4
 5674.46     0.27       52.747      0.0136   4.74783E-4
 5737.15     0.16       21.229      0.11117   0.00508
 5737.15     0.16       31.797      0.05982   0.00186
 5737.15     0.16       42.31       0.03119   0.00153
 5772.50     0.42       12.748      0.18811   0.00803
 5772.50     0.42       21.23       0.0974    0.00404
 5772.50     0.42       31.799      0.0494    0.00163
 5772.50     0.42       42.313      0.0277    0.00164
 5789.41     0.93       12.748      0.02352   0.00356    2.0
 5789.41     0.93       31.8        0.02745   0.00186    2.0
 5789.41     0.93       42.314      0.03493   0.00177    2.0
 5808.44     0.13       12.749      0.08626   0.00504
 5808.44     0.13       21.232      0.03356   0.00184
 5808.44     0.13       31.801      0.02038   0.00117
 5850.65     0.16       21.234      0.60023   0.01267
 5850.65     0.16       31.804      0.27857   0.00466
 5850.65     0.16       42.319      0.10222   0.00188
 5896.69     0.09       12.751      0.0903    0.00687
 5896.69     0.09       21.236      0.08217   0.00471
 5896.69     0.09       31.806      0.11793   0.00477
 5896.69     0.09       42.323      0.09424   0.00177
 5896.69     0.09       52.768      0.08234   0.00239
 5918.10     0.13       12.7516     0.50875   0.01281
 5918.10     0.13       31.8078     0.12187   0.0025
 5918.10     0.13       42.3244     0.03559   0.00118
 5918.10     0.13       52.7704     0.03723   0.00155
 6073.31     0.21       12.7557     0.29875   0.01783
 6073.31     0.21       21.2432     0.18863   0.01959
 6073.31     0.21       31.8176     0.13288   0.00961
 6073.31     0.21       42.3369     0.10204   0.00676
 6073.31     0.21       52.7854     0.08447   0.00198
 6088.20     0.52       12.7561     0.17768   0.01182    2.0
 6088.20     0.52       31.8186     0.09357   0.00296    2.0
 6088.20     0.52       42.3382     0.05467   0.00273    2.0
 6088.20     0.52       52.7869     0.04008   0.00137    2.0
 6175.94     0.52       12.7584     0.37946   0.0103     2.0
 6175.94     0.52       31.8242     0.03495   0.00187    2.0
 6175.94     0.52       52.7955     0.00827   8.3507E-4  2.0
 6183.13     0.65       12.7586     0.18772   0.00915    2.0
 6183.13     0.65       21.248      0.08245   0.0081     2.0
 6183.13     0.65       52.7962     0.00886  8.96791E-4  2.0
 6199.11     0.24       12.759      0.07799   0.00115    2.0
 6199.11     0.24       21.249      0.09963   0.00436    2.0
 6199.11     0.24       52.798      0.02421   0.00119    2.0
 6247.67     0.13       12.76       0.17635   0.00802
 6247.67     0.13       21.251      0.07891   0.00415
 6247.67     0.13       52.802      0.03097   0.00155
 6256.67     0.15       12.761      0.30335   0.01373
 6256.67     0.15       21.251      0.1331    0.00528
 6256.67     0.15       31.829      0.11873   0.00533
 6256.67     0.15       52.803      0.0227    0.00131
 6305.92     0.53       12.762      0.19252   0.00915
 6305.92     0.53       21.254      0.16935   0.00827
 6305.92     0.53       31.833      0.0647    0.00208
 6305.92     0.53       42.356      0.02622   0.00117
 6305.92     0.53       52.808      0.02051      8.4E-4
ENDDATA            302
ENDSUBENT          309
SUBENT        D0297003   20050308   20050810   20050926       D041
BIB                  2          2
REACTION   (11-NA-23(D,P)11-NA-24,PAR,POL/DA,,ANA)
EN-SEC     (E-EXC,11-NA-24)
ENDBIB               2
NOCOMMON             0          0
DATA                 6        296
E-EXC      E-ERR      ANG-CM     DATA-CM    DATA-ERR   FLAG
KEV        KEV        ADEG       NO-DIM     NO-DIM     NO-DIM
    0.0                 12.6331     0.1852     0.02402
    0.0                 21.0414    -0.06888    0.06226
    0.0                 31.5226     0.1518     0.04646
    0.0                 41.9576    -0.01379    0.06163
    0.0                 52.3331    -0.1836     0.1225
  472.23     0.12       12.6405     0.0242     0.01377
  472.23     0.12       21.0537     0.07077    0.01003
  472.23     0.12       31.5406     0.1678     0.01358
  472.23     0.12       41.9807    -0.07519    0.02053
  472.23     0.12       52.3606    -0.2526     0.01226
  562.08     0.19       12.642      0.02779    0.01043
  562.08     0.19       21.0561    -0.03516    0.01086
  562.08     0.19       31.5441    -0.02578    0.0122
  562.08     0.19       41.9851    -0.1321     0.01346
  562.08     0.19       52.366     -0.171      0.01542
 1341.25     0.34       12.655      0.04283    0.01146
 1341.25     0.34       21.0775    -0.212      0.02206
 1341.25     0.34       31.5754    -0.3017     0.027
 1341.25     0.34       42.0254    -0.1778     0.04539
 1346.37     0.54       12.6551     0.0823     0.01319   1.0
 1346.37     0.54       21.0777    -0.2263     0.02545   1.0
 1346.37     0.54       31.5756     0.4441     0.1202    1.0
 1346.37     0.54       42.0257     0.0894     0.1133    1.0
 1511.82     0.16       12.658      0.2553     0.09892
 1511.82     0.16       21.0824     0.07597    0.06357
 1511.82     0.16       31.5825     0.09588    0.05003
 1511.82     0.16       42.0346     0.1235     0.05292
 1846.33     0.10       12.6639     0.02847    0.00651
 1846.33     0.10       21.0921    -0.1122     0.01147
 1846.33     0.10       31.5967    -0.09436    0.01183
 1846.33     0.10       42.0528    -0.08845    0.00969
 1846.33     0.10       52.4467    -0.1816     0.01638
 1885.27     0.14       12.6646    -0.1143     0.01213
 1885.27     0.14       21.0933    -0.02016    0.01336
 1885.27     0.14       31.5984     0.04339    0.01907
 1885.27     0.14       42.0551    -0.09553    0.01759
 1885.27     0.14       52.4494    -0.2291     0.01774
 2512.33     0.33       12.6761    -0.05774    0.00893
 2512.33     0.33       21.1123    -0.08743    0.01664
 2512.33     0.33       31.6262     0.0        0.01945
 2512.33     0.33       42.0908    -0.1684     0.1074
 2512.33     0.33       52.492     -0.2503     0.05517
 2563.16     0.35       12.6771    -0.03885    0.01466
 2563.16     0.35       21.1139     0.09485    0.01441
 2563.16     0.35       31.6285     0.1887     0.00597
 2563.16     0.35       42.0937    -0.1249     0.04454
 2904.06     0.55       12.684     -0.05056    0.01326
 2904.06     0.55       31.644      0.04527    0.0159
 2904.06     0.55       42.114     -0.0152     0.01561
 2904.06     0.55       52.52      -0.13559    0.01298
 2977.70     0.22       12.685     -0.07395    0.00622
 2977.70     0.22       21.127     -0.12087    0.0049
 2977.70     0.22       31.648     -0.02347    0.02581
 2977.70     0.22       42.119      0.28995    0.00619
 2977.70     0.22       52.525     -0.10836    0.0044
 3216.57     0.16       12.69       0.06369    0.02651
 3216.57     0.16       21.135      0.0582     0.01861
 3216.57     0.16       31.659     -0.03492    0.01636
 3216.57     0.16       42.133     -0.06542    0.02008
 3216.57     0.16       52.543     -0.18483    0.0232
 3371.55     0.16       12.693      0.02759    0.00361
 3371.55     0.16       21.14       0.00787    0.04347
 3371.55     0.16       31.667     -0.19924    0.0081
 3371.55     0.16       42.143     -0.07164    0.00407
 3371.55     0.16       52.554     -0.1828     0.00678
 3413.05     0.06       12.694      0.00683    0.00537
 3413.05     0.06       21.141     -0.07806    0.008
 3413.05     0.06       31.669     -0.15033    0.00478
 3413.05     0.06       42.146     -0.125      0.0048
 3413.05     0.06       52.557     -0.05505    0.01049
 3589.31     0.08       12.698      0.01771    0.00571
 3589.31     0.08       21.147     -0.05128    0.00874
 3589.31     0.08       31.678     -0.11012    0.00857
 3589.31     0.08       42.157     -0.1738     0.01103
 3589.31     0.08       52.571     -0.08571    0.02608
 3628.58     0.06       12.698     -0.06884    0.00323
 3628.58     0.06       21.149     -0.14143    0.00643
 3628.58     0.06       31.68      -0.09585    0.0063
 3628.58     0.06       42.159      0.2768     0.00678
 3628.58     0.06       52.574     -0.02719    0.00923
 3656.10     0.06       12.699     -0.01493    0.00636
 3656.10     0.06       21.15      -0.11801    0.00983
 3656.10     0.06       31.681     -0.11976    0.00948
 3656.10     0.06       42.161      0.17515    0.01002
 3656.10     0.06       52.576     -0.1022     0.01255
 3681.13     0.23       12.699      0.05263    0.04179
 3681.13     0.23       21.151      0.05882    0.06409
 3681.13     0.23       31.682     -0.248      0.05762
 3681.13     0.23       42.163      0.02041    0.06676
 3681.13     0.23       52.578      0.14286    0.12433
 3737.62     0.22       31.6956    -0.04089    0.0381     2.0
 3737.62     0.22       42.163     -0.16412    0.04539    2.0
 3737.62     0.22       52.5983    -0.23261    0.32932    2.0
 3745.07     0.13       12.701      0.07816    0.00872
 3745.07     0.13       21.153      0.0014     0.0072
 3745.07     0.13       31.685     -0.04348    0.00532
 3745.07     0.13       52.583     -0.20365    0.02681
 3884.85     0.32       42.163     -0.06349    0.06068
 3884.85     0.32       52.5983    -0.27945    0.03815
 3933.60     0.13       12.7048     0.03481    0.01328
 3933.60     0.13       21.1595     0.07239    0.02438
 3933.60     0.13       31.6951    -0.1664     0.04503
 3933.60     0.13       52.5976    -0.1645     0.03143
 3943.57     0.08       12.705     -0.01772    0.0203
 3943.57     0.08       21.1598    -0.08864    0.0242
 3943.57     0.08       31.6956    -0.06542    0.02442
 3943.57     0.08       52.5983    -0.1472     0.03145
 3976.95     0.29       21.161      0.00505    0.03039
 3976.95     0.29       31.6974    -0.0533     0.04447
 3976.95     0.29       42.1823     0.09624    0.0879
 3976.95     0.29       52.601     -0.09492    0.05938
 4048.25     0.20       12.71      -0.01339    0.04733
 4048.25     0.20       21.16      -0.08418    0.07872
 4048.25     0.20       31.7       -0.1852     0.1448
 4048.25     0.20       42.19      -0.08547    0.2019
 4142.59     0.21       12.7094     0.01277    0.1806
 4142.59     0.21       21.167     -0.00934    0.1512
 4142.59     0.21       31.7061     0.02778    0.108
 4142.59     0.21       42.1936     0.2519     0.09255
 4142.59     0.21       52.6145     0.155      0.086
 4187.30     0.12       12.7103     0.02352    0.03694
 4187.30     0.12       21.1685     0.04996    0.0552
 4187.30     0.12       31.7084     0.08426    0.06642
 4187.30     0.12       42.1964     0.07407    0.01346
 4187.30     0.12       52.6179     0.00537    0.09249
 4196.42     0.16       12.7105     0.02545    0.0539
 4196.42     0.16       21.1688    -0.306      0.1809
 4196.42     0.16       42.197      0.01949    0.2757
 4196.42     0.16       52.6186    -0.1053     0.05934
 4207.03     0.08       12.7107     0.0264     0.04715
 4207.03     0.08       21.1692    -0.01368    0.06753
 4207.03     0.08       31.7094    -0.09813    0.04392
 4207.03     0.08       42.1978    -0.06667    0.03597
 4207.03     0.08       52.6179    -0.15
 4441.75     0.10       12.716      0.02415    0.03807
 4441.75     0.10       21.1778     0.1597     0.04827
 4441.75     0.10       31.722      0.1861     0.0666
 4441.75     0.10       52.6388     0.05432    0.08904
 4526.87     0.24       12.718     -0.00833    0.00764
 4526.87     0.24       21.181     -0.09025    0.04063
 4526.87     0.24       31.727     -0.15719    0.03773
 4526.87     0.24       42.22      -0.0105     0.02307
 4526.87     0.24       52.646     -0.17411    0.03146
 4559.07     0.18       12.719     -0.03425    0.01228
 4559.07     0.18       21.182     -0.04523    0.04546
 4559.07     0.18       31.728     -0.08108    0.03985
 4559.07     0.18       52.649     -0.18519    0.04061
 4621.12     0.19       12.72      -0.02873    0.0531
 4621.12     0.19       21.185      0.0124     0.06228
 4621.12     0.19       31.732     -0.10204    0.06315
 4621.12     0.19       42.227     -0.23256    0.01876
 4621.12     0.19       52.654     -0.05344    0.04204
 4693.30     0.15       12.722     -0.03639    0.02068
 4693.30     0.15       21.187     -0.02255    0.01303
 4693.30     0.15       31.736      0.01027    0.02097
 4693.30     0.15       42.232     -0.1105     0.01835
 4693.30     0.15       52.66      -0.20344    0.01452
 4750.78     0.17       12.723      0.04322    0.0073
 4750.78     0.17       21.189      0.08639    0.00561
 4750.78     0.17       31.739     -0.05489    0.00527
 4750.78     0.17       42.236      0.02759    0.00542
 4750.78     0.17       52.665      0.08108    0.00852
 4889.31     0.18       12.726      0.08772    0.24158
 4889.31     0.18       21.195     -0.14504    0.04242
 4889.31     0.18       31.747     -0.18919    0.03242
 4889.31     0.18       52.677     -0.12222    0.01938
 4908.28     0.16       12.727      0.16667    0.18342
 4908.28     0.16       21.195      0.1358     0.05873
 4908.28     0.16       31.748      0.15385    0.04105
 4908.28     0.16       42.247     -0.01887    0.03343
 4908.28     0.16       52.678     -0.06195    0.02786
 4938.90     0.13       12.727     -0.00297    0.0014
 4938.90     0.13       21.197      0.06464      7.4E-4
 4938.90     0.13       31.75       0.01665    0.00881
 4938.90     0.13       42.249     -0.22677    0.0129
 4938.90     0.13       52.681     -0.27       0.01333
 4973.83     0.12       12.728      0.01899    0.02042
 4973.83     0.12       21.198     -0.07872    0.00942
 4973.83     0.12       31.751     -0.11411    0.01203
 4973.83     0.12       42.252     -0.01863    0.02093
 4973.83     0.12       52.684     -0.07438    0.01774
 5027.33     0.49       21.2        0.13514    0.06428
 5027.33     0.49       42.256     -0.0566     0.03319
 5027.33     0.49       52.689     -0.10256    0.02241
 5044.49     0.17       12.7299     0.02342    0.0759
 5044.49     0.17       21.2008     0.03523    0.02632
 5044.49     0.17       31.7556     0.05123    0.02822
 5044.49     0.17       42.2571    -0.1857     0.0349
 5044.49     0.17       52.6902    -0.3964     0.03718
 5059.95     0.10       12.7303     0.05473    0.01476
 5059.95     0.10       21.2014     0.1136     0.01266
 5059.95     0.10       31.7564     0.1487     0.0158
 5059.95     0.10       52.6915     0.08047    0.02292
 5117.34     0.08       12.7316     0.05221    0.01516
 5117.34     0.08       21.2036     0.03436    0.01297
 5117.34     0.08       31.7597    -0.1291     0.00855
 5117.34     0.08       42.2624    -0.2351     0.01091
 5180.55     0.13       12.7331    -0.05902    0.00947
 5180.55     0.13       21.2061     0.04987    0.00634
 5180.55     0.13       31.7633     0.07562    0.00676
 5180.55     0.13       42.2671     0.06303    0.00765
 5180.55     0.13       52.7022     0.01361    0.01283
 5192.51     0.14       12.7334     0.02089    0.02551
 5192.51     0.14       21.2066    -0.0323     0.02806
 5192.51     0.14       31.764     -0.01992    0.03257
 5192.51     0.14       42.268      0.00994    0.0299
 5192.51     0.14       52.7032    -0.00946    0.03846
 5245.38     0.12       21.2087    -0.1282     0.01729
 5245.38     0.12       31.7672    -0.1843     0.02777
 5245.38     0.12       42.2721    -0.02226    0.03873
 5245.38     0.12       52.7081    -0.08658    0.03807
 5308.10     0.19       12.7363     0.08187    0.1486
 5308.10     0.19       31.7708    -0.2        0.08536
 5308.10     0.19       42.2768    -0.2156     0.1036
 5308.10     0.19       52.7136    -0.202      0.08605
 5338.86     0.10       12.737      0.02861    0.02361
 5338.86     0.10       31.7726    -0.00527    0.01489
 5338.86     0.10       42.2791    -0.06359    0.02591
 5338.86     0.10       52.7164     0.01548    0.02244
 5408.29     0.24       12.7387    -0.0592     0.08564
 5408.29     0.24       21.2153    -0.03405    0.0459
 5408.29     0.24       31.7767     0.05018    0.07846
 5408.29     0.24       42.2844     0.1149     0.05447
 5408.29     0.24       52.7227     0.0995     0.05887
 5454.99     0.21       12.7399     0.07228    0.07775
 5454.99     0.21       42.288      0.1587     0.07559
 5454.99     0.21       52.727      0.2614     0.07122
 5478.88     0.21       12.74       0.03597    0.01414
 5478.88     0.21       31.781      0.00191    0.01651
 5478.88     0.21       42.29      -0.26016    0.01355
 5478.88     0.21       52.729     -0.28346    0.01465
 5571.57     0.19       12.743     -0.01997    0.02322
 5571.57     0.19       21.222     -0.0572     0.01199
 5571.57     0.19       31.787     -0.06613    0.01275
 5571.57     0.19       52.738      0.02564    0.02459
 5629.27     0.71       21.224      0.039      0.01503
 5629.27     0.71       31.79      -0.04854    0.03055
 5629.27     0.71       52.743      0.0274     0.02153
 5674.46     0.27       21.226      0.03282    0.03786
 5674.46     0.27       42.305      0.01835    0.02357
 5674.46     0.27       52.747     -0.01863    0.01952
 5737.15     0.16       21.229      0.14286    0.02238
 5737.15     0.16       31.797      0.06593    0.01612
 5737.15     0.16       42.31      -0.04       0.02631
 5772.50     0.42       12.748      0.0431     0.02033
 5772.50     0.42       21.23      -0.03177    0.02045
 5772.50     0.42       31.799     -0.06822    0.01779
 5772.50     0.42       42.313      0.003      0.03424
 5789.41     0.93       12.748     -0.05517    0.07625
 5789.41     0.93       31.8        0.12575    0.03793
 5789.41     0.93       42.314      0.31905    0.03419
 5808.44     0.13       12.749     -0.07143    0.03046
 5808.44     0.13       21.232     -0.13107    0.0315
 5808.44     0.13       31.801     -0.08871    0.0318
 5850.65     0.16       21.234     -0.00136    0.01173
 5850.65     0.16       31.804     -0.03245    0.00827
 5850.65     0.16       42.319     -0.02197    0.01086
 5896.69     0.09       12.751      0.05291    0.0408
 5896.69     0.09       21.236     -0.0198     0.03343
 5896.69     0.09       31.806     -0.00767    0.02017
 5896.69     0.09       42.323      0.05207    0.0108
 5896.69     0.09       52.768      0.2        0.01322
 5918.10     0.13       12.7516    -0.04954    0.02756
 5918.10     0.13       31.8078     0.0        0.02282
 5918.10     0.13       42.3244     0.1194     0.03693
 5918.10     0.13       52.7704    -0.32       0.0482
 6073.31     0.21       12.7557     0.00301    0.06628
 6073.31     0.21       21.2432    -0.01916    0.1156
 6073.31     0.21       31.8176    -0.1448     0.07672
 6073.31     0.21       42.3369    -0.1231     0.07339
 6073.31     0.21       52.7854    -0.1432     0.02562
 6088.20     0.52       12.7561     0.124      0.07325    2.0
 6088.20     0.52       31.8186    -0.08382    0.03515    2.0
 6088.20     0.52       42.3382     0.03377    0.05585    2.0
 6088.20     0.52       52.7869     0.0538     0.03828    2.0
 6175.94     0.52       12.7584     0.00237    0.03015    2.0
 6175.94     0.52       31.8242    -0.3547     0.05781    2.0
 6175.94     0.52       52.7955     0.0        0.1122     2.0
 6183.13     0.65       12.7586    -0.02874    0.0542     2.0
 6183.13     0.65       21.248      0.02192    0.1085     2.0
 6183.13     0.65       52.7962     0.2857     0.1124     2.0
 6199.11     0.24       12.759      0.1473     0.01107    2.0
 6199.11     0.24       21.249      0.08483    0.02637    2.0
 6199.11     0.24       52.798     -0.02439    0.02738    2.0
 6247.67     0.13       12.76       0.04587    0.02525
 6247.67     0.13       21.251     -0.12667    0.03266
 6247.67     0.13       52.802     -0.10082    0.02885
 6256.67     0.15       12.761     -0.06667    0.02431
 6256.67     0.15       21.251      0.02442    0.02416
 6256.67     0.15       31.829      0.05663    0.02241
 6256.67     0.15       52.803     -0.07807    0.03349
 6305.92     0.53       12.762      0.01681    0.02476
 6305.92     0.53       21.254     -0.04607    0.02858
 6305.92     0.53       31.833     -0.12041    0.01844
 6305.92     0.53       42.356     -0.12025    0.02603
 6305.92     0.53       52.808     -0.2428     0.02637
ENDDATA            298
ENDSUBENT          305
ENDENTRY             3
