ENTRY            22916   20060512   20061123   20061121       2179
SUBENT        22916001   20060512   20061123   20061121       2179
BIB                 14         64
TITLE      Stellar neutron capture cross sections of the unstable
           S-process branching point Sm-151.
AUTHOR     (K.Wisshak, F.Voss, F.Kaeppeler, M.Krticka, S.Raman,
           A.Mengoni, R.Gallino)
INSTITUTE  (2GERKFK)  Wisshak, Voss, Kaeppeler, and
                      experimental site
           (3CZRCHU)  Krticka
           (1USAORL)  Raman
           (2ZZZCER)  Mengoni
           (2ITYTUR)  Gallino
           (3AULMOU)  Gallino
REFERENCE  (J,PR/C,73,015802,2006) Main reference, data are given
           (J,PR/C,48,1401,1993)  ENTRY 22374, K.WISSHAK
                                  Experimental details
           (J,PR/C,45,2470,199205) K.WISSHAK, ENTRY 22372.
                                 Experimental details
           (J,NIM/A,292,595,1990) K.WISSHAK, Description of
                                  detector.
FACILITY   (VDG,2GERKFK)  3.7 MV Van de Graaff accelerator.
METHOD     (TOF)  Flight path is 79 cm for capture and 260 cm for
                  total cross section measurements
DETECTOR   (D4PI,SCIN) Karlsruhe 4pi barium fluoride detector for
             detection of capture gamma-rays. Detector consists
             of 42 hexagonal and pentagonal crystals forming a
             spherical shell of baf(2) with 10 cm inner radius
             and 15 cm thickness. Resolution of energy is 7%
             at 2.5 MeV, time resolution 500 picosec, peak effi-
             ciency 90% at 1 MeV. The 1.8-MeV gamma-ray
             threshold in sum energy used in the present
             experiment corresponds to an efficiency for capture
             events of more than 95%.
           (GLASD) Li-6 glass detectors for neutron total cross-
                   section measurement
INC-SOURCE (P-LI7) Metallic Li target.
INC-SPECT  .Proton beam energy adjusted so to be 30 and 100 KeV
            above the Li-7(P,N)be-7 reaction threshold 1.881 MeV.
SAMPLE     .Au-197 sample 10 mm diameter, 0.4  mm = 2.1621E-3
            atoms/B thickness, 0.5554-gram weight, enclosing
            in welded titanium can, lid and body deep-drawn from
            0.25-mm thick foils- 0.4329g
           .Empty welded titanium can, lid and body deep-drawn
            from 0.25-mm thick foils- 0.4181g
CORRECTION .Corrections were made for multiple scattering,
            for isotopic impurities, for neutron self-absorption,
            for undetected events, for signal/background ratio -
            all for different neutron energies-these corrections
            are smaller than 2%.
ERR-ANALYS (ERR-1) Error due to flight path.
           (ERR-2) Error due to neutron flux normalization
           (ERR-3) Error due to sample mass and elemental
                   impurities
           (ERR-4) Error due to isotopic composition Sm-151
           (ERR-5) Error due to isotopic correction Sm-151
           (ERR-6) Error due to multiple scattering and self-
                   shielding-F2 cross section ratio-Sm-151.
           (ERR-7) Error due to multiple scattering and self-
                   shielding-F2 cross section ratio-Sm-natural
           (ERR-8) Error in undetected events-F1 cross section
                   ratio Sm-151.
           (ERR-9) Error in undetected events-F1 cross section
                   ratio Sm-natural.
HISTORY    (20060507C) SM
           (20060911U) Last corrections have been done.
STATUS     . Data are taken from tables  of  reference
ENDBIB              64
COMMON               9          6
ERR-1      ERR-2      ERR-3      ERR-4      ERR-5      ERR-6
ERR-7      ERR-8      ERR-9
PER-CENT   PER-CENT   PER-CENT   PER-CENT   PER-CENT   PER-CENT
PER-CENT   PER-CENT   PER-CENT
        0.1        0.2        0.2        0.2        1.6        0.3
        0.4        0.8        0.4
ENDCOMMON            6
ENDSUBENT           74
SUBENT        22916002   20060512   20061123   20061121       2179
BIB                  4         11
REACTION   (6-C-12(N,TOT),,SIG,,AV) Table III, averaged over
                       energy interval given in data section
REL-REF    (A,21374000,K.WISSHAK+,J,PR/C,48,1401,1993)
SAMPLE     .Graphite sample 10 mm diameter, 1.0  mm = 8.7427-3
            atoms/B thickness, 0.1370 gram weight, enclosing
            welded titanium can, lid and body deep-drawn from
            0.25-mm thick foils- 0.4349g
COMMENT    *By authors*.For easier comparison of the individual
            results the averaged total cross sections in the
            neutron energy interval from 10 to 100-KeV are
            indicated as well-4.44 barns.
ENDBIB              11
COMMON               1          3
ERR-T
PER-CENT
        1.2
ENDCOMMON            3
DATA                 3         10
EN-MIN     EN-MAX     DATA
KEV        KEV        B
        10.        15.       4.74
        10.       100.       4.49
        15.        20.       4.58
        20.        30.       4.78
        30.        40.       4.31
        40.        60.       4.61
        60.        80.       4.33
        80.       100.       4.37
       100.       150.       4.14
       150.       200.       3.95
ENDDATA             12
ENDSUBENT           32
SUBENT        22916003   20060512   20061123   20061121       2179
BIB                  3         19
REACTION   (62-SM-151(N,TOT),,SIG,,AV) Table 3
            averaged over energy interval given in data section
SAMPLE     .A 206.4 mg samples of samarium oxide Sm2-O3 with 90%
            enrichment in Sm-151 were used. It was pressed into
            a solid pellet 10 mm in diameter, which was enclosed
            in a titanium can prepared from 0.25 mm thick foil
             0.4340g weight. Thickness is 0.6 mm=0.8861E-3 at/B.
            The can consisted of a deep-drawn body 15 mm in
            diameter with a 3 mm deep depression for the sample.
            The lid had a corresponding depression of 1 mm to
            match the 2-mm thick sample. An identical sample was
            prepared from natural samarium oxide to verify the
            experimental procedures by checking whether the cross
            section of natural samarium could be properly
            reproduced.
COMMENT    *By authors*.For easier comparison of the individual
           results the averaged total cross sections in the
           neutron energy interval from 10 to 100-KeV are
           indicated as well-17.2 barns.
ENDBIB              19
COMMON               1          3
ERR-T
PER-CENT
        2.1
ENDCOMMON            3
DATA                 3         10
EN-MIN     EN-MAX     DATA
KEV        KEV        B
        10.        15.       26.7
        10.       100.       17.2
        15.        20.       37.9
        20.        30.       25.2
        30.        40.       16.9
        40.        60.       15.8
        60.        80.       11.7
        80.       100.       12.5
       100.       150.       11.4
       150.       200.       10.2
ENDDATA             12
ENDSUBENT           40
SUBENT        22916004   20060512   20061123   20061121       2179
BIB                  2          9
REACTION   (62-SM-0(N,TOT),,SIG,,AV) Table III, averaged over
                       energy interval given in data section
SAMPLE     .A 200.0 mg samples of samarium oxide Sm2-O3 with
            natural isotopic content.  Thickness is 0.6 mm =
            0.9675E-3  atoms/B thickness. It was pressed into
            a solid pellet 10 mm in diameter, which was enclosed
            in a titanium can prepared from 0.25 mm thick foils.
            enclosing welded titanium can, lid  and, weight
            0.3989g
ENDBIB               9
COMMON               1          3
ERR-T
PER-CENT
        2.2
ENDCOMMON            3
DATA                 3         10
EN-MIN     EN-MAX     DATA
KEV        KEV        B
        10.        15.       19.8
        10.       100.       13.9
        15.        20.       22.7
        20.        30.       17.9
        30.        40.       13.6
        40.        60.       13.3
        60.        80.       10.6
        80.       100.       12.1
       100.       150.       11.6
       150.       200.       11.1
ENDDATA             12
ENDSUBENT           30
SUBENT        22916005   20060512   20061123   20061121       2179
BIB                  2          6
REACTION   (79-AU-197(N,TOT),,SIG,,AV) Table III, averaged over
                          energy interval given in data section
COMMENT    *By authors*.For easier comparison of the individual
           results the averaged total cross sections in the
           neutron energy interval from 10 to 100-KeV are
           indicated as well-12.8 barns.
ENDBIB               6
COMMON               1          3
ERR-T
PER-CENT
        1.5
ENDCOMMON            3
DATA                 3         10
EN-MIN     EN-MAX     DATA
KEV        KEV        B
        10.        15.       19.
        10.       100.       12.8
        15.        20.       18.5
        20.        30.       15.1
        30.        40.       12.7
        40.        60.       12.3
        60.        80.       10.5
        80.       100.       11.4
       100.       150.       10.4
       150.       200.        9.1
ENDDATA             12
ENDSUBENT           27
SUBENT        22916006   20060512   20061123   20061121       2179
BIB                  3         15
REACTION   ((62-SM-151(N,G)62-SM-152,,SIG,,AV)/
           (79-AU-197(N,G)79-AU-198,,SIG,,AV))  Table V, averaged
                      over energy interval given in data section
SAMPLE     .At the moment of the measurements -
            Sm-151, chemical form Sm2-O3, sample 10 mm diameter,
            0.6 mm=0.8861E-3 atoms/B  thickness, 0.20216  gram
            weight, enclosing in welded titanium can, lid and body
            deep-drawn from 0.25 mm thick foils, weight 0.4340g.
            Sm-144 content is 0.52%, Sm-147 content is 1.398%,
            Sm-148 content is 0.224%. Sm-149 content is 0.408%,
            Sm-150 content is 4.013%, Sm-151 content is 89.842%,
            Sm-152 content is 3.389%, Sm-154 content is 0.674%.
           .Eu2-O3 admixture is 4.24 milligram
ERR-ANALYS (ERR-SYS) Total systematic error
           (ERR-S) Statistical error
ENDBIB              15
COMMON               1          3
ERR-SYS
PER-CENT
        1.9
ENDCOMMON            3
DATA                 5         18
EN-MIN     EN-MAX     DATA       ERR-S      ERR-T
KEV        KEV        NO-DIM     PER-CENT   PER-CENT
        3.        5.      5.1766       17.        17.
        5.        7.5     4.5172        7.5        7.7
        7.5      10.      4.4857        5.6        5.9
       10.       12.5     5.3337        4.         4.4
       12.5      15.      5.6682        3.5        4.
       15.       20.      5.5837        2.         2.8
       20.       25.      6.1048        1.7        2.5
       25.       30.      5.6615        1.5        2.4
       30.       40.      5.6217        1.2        2.2
       40.       50.      5.6438        1.2        2.2
       50.       60.      5.6083        1.2        2.2
       60.       80.      5.1157        1.1        2.2
       80.      100.      4.7008        1.1        2.2
      100.      120.      4.3067        1.1        2.2
      120.      150.      3.9689        2.1        2.8
      150.      175.      3.7748        2.3        3.
      175.      200.      3.3679        2.5        3.1
      200.      225.      3.1516        4.3        4.7
ENDDATA             20
ENDSUBENT           44
SUBENT        22916007   20060512   20061123   20061121       2179
BIB                  3         11
REACTION   ((62-SM-0(N,G),,SIG,,AV)/
           (79-AU-197(N,G)79-AU-198,,SIG,,AV))  Table V,
            averaged over energy interval given in data section
SAMPLE     Natural Sm-sample(chemical form Sm(2)O(3)) 10-mm
           diameter, 0.6-mm=0.9675E-3  atoms/B thickness, 0.2200
           gram weight, enclosing welded titanium can, lid  and
           body deep-drawn from 0.25-mm thick foils- 0.3989g
           empty welded titanium can, lid and body deep-drawn from
            0.25-mm thick foils- 0.4181g
ERR-ANALYS (ERR-SYS) Total systematic error
           (ERR-S) Statistical error
ENDBIB              11
COMMON               1          3
ERR-SYS
PER-CENT
        0.6
ENDCOMMON            3
DATA                 5         18
EN-MIN     EN-MAX     DATA       ERR-S      ERR-T
KEV        KEV        NO-DIM     PER-CENT   PER-CENT
        3.         5.     0.8869       56.        56.
        5.         7.5    0.8985       16.        16.
        7.5       10.     0.8234       14.        14.
       10.        12.5    0.9985       10.        10.
       12.5       15.     0.9908        8.1        8.1
       15.        20.     0.9469        4.5        4.5
       20.        25.     1.1289        3.4        3.5
       25.        30.     1.0112        3.0        3.1
       30.        40.     0.9429        2.5        2.6
       40.        50.     1.0150        2.4        2.5
       50.        60.     1.0572        2.3        2.4
       60.        80.     0.9998        2.1        2.2
       80.       100.     1.0333        2.1        2.2
      100.       120.     0.9961        2.1        2.2
      120.       150.     0.9967        4.         4.
      150.       175.     0.9955        4.3        4.3
      175.       200.     0.9543        4.6        4.6
      200.       225.     0.9553        8.         8.
ENDDATA             20
ENDSUBENT           40
SUBENT        22916008   20060512   20061123   20061121       2179
BIB                  6         16
REACTION   (62-SM-151(N,G)62-SM-152,,SIG,,AV)   Averaged over
            energy interval given in data section
MONITOR    ((MONIT)79-AU-197(N,G)79-AU-198,,SIG)
MONIT-REF  (,W.RATYNSKI+,J,PR/C,37,595,1988)
STATUS     .Data are taken from Table VI of main reference
           (DEP,22916006)
           (DEP,22916007)
ANALYSIS   .            The absolute cross section was obtained
            from the experimental ratios using the gold data of
            macklin(see 12720.002) after normalization by a
            factor of 0.989 to the absolute value (see MONIT-REF)
ERR-ANALYS (MONIT-ERR) Error of the Au-197(N,G) monitor.
            The uncertainties of the resulting values can be
            obtained by adding the 1.5% uncertainty of the
            reference cross section to the uncertainties of the
            respective cross section ratios.
ENDBIB              16
COMMON               1          3
MONIT-ERR
PER-CENT
  1.5
ENDCOMMON            3
DATA                 4         18
EN-MIN     EN-MAX     DATA       MONIT
KEV        KEV        MB         MB
       3.         5.     11734.      2267.
       5.         7.5     7800.      1727.
       7.5       10.      5454.      1216.
      10.        12.5     5690.      1067.
      12.5       15.      4977.       878.
      15.        20.      4125.       739.
      20.        25.      3663.       600.
      25.        30.      3231.       571.
      30.        40.      2813.       500.
      40.        50.      2446.       433.
      50.        60.      2185.       390.
      60.        80.      1787.       349.
      80.       100.      1402.       298.
     100.       120.      1250.       290.
     120.       150.      1088.       274.
     150.       175.       995.       264.
     175.       200.       851.       253.
     200.       225.       783.       249.
ENDDATA             20
ENDSUBENT           45
SUBENT        22916009   20060512   20061123   20061121       2179
BIB                  6         15
REACTION   (62-SM-0(N,G),,SIG,,AV)
            Averaged over energy interval given in data section
MONITOR    ((MONIT)79-AU-197(N,G)79-AU-198,,SIG)
MONIT-REF  (,W.RATYNSKI+,J,PR/C,37,595,1988)
STATUS     Data are taken from table 6  of main reference
           (DEP,22916007)
ANALYSIS   .The absolute cross section was obtained
            from the experimental ratios using the gold data of
            macklin(see 12720.002) after normalization by a factor
            of 0.989 to the absolute value (see monit-ref)
ERR-ANALYS (MONIT-ERR) Error of the Au-197(N,G) monitor.
            The uncertainties of the resulting values can be
            obtained by adding the 1.5% uncertainty of the
            reference cross section to the uncertainties of the
            respective cross section ratios.
ENDBIB              15
COMMON               1          3
MONIT-ERR
PER-CENT
  1.5
ENDCOMMON            3
DATA                 4         18
EN-MIN     EN-MAX     DATA       MONIT
KEV        KEV        MB         MB
       3.         5.      2010.      2267.
       5.         7.5     1552.      1727.
       7.5       10.      1001.      1216.
      10.        12.5     1065.      1067.
      12.5       15.       870.       878.
      15.        20.       700.       739.
      20.        25.       677.       600.
      25.        30.       577.       571.
      30.        40.       472.       500.
      40.        50.       440.       433.
      50.        60.       412.       390.
      60.        80.       349.       349.
      80.       100.       308.       298.
     100.       120.       289.       290.
     120.       150.       273.       274.
     150.       175.       263.       264.
     175.       200.       241.       253.
     200.       225.       237.       249.
ENDDATA             20
ENDSUBENT           44
SUBENT        22916010   20060512   20061123   20061121       2179
BIB                  7         32
REACTION   (62-SM-151(N,G)62-SM-152,,SIG,,MXW)     En-mean in
            data section is KT
INC-SPECT  .Maxwellian neutron energy distribution
REL-REF    (R,,J.KOPECKI+,R,INDC(NDS)-362,1997) Data for ASSUM1,
                                                ASSUM3
ANALYSIS    The neutron energy range from thermal to 700-KeV was
            divided into three intervals-I(X). The dominant part
            between 3 and 225-KeV (I2) is provided by the present
            experiments. These data were obtained with sufficient
            resolution in neutron energy to exclude systematic
            uncertainties in the calculation of the maxwellian
            average. Contributions for 0-3 =I(1) and 225-700 keV
            = I(3) are taken from REL-REF being normalized to the
            present data.
ASSUMED    (ASSUM1,62-SM-151(N,G)62-SM-152,PAR,SIG,,MXW,EVAL) For
               energy range 0 - 3 keV  from REL-REF
           (ASSUM2,62-SM-151(N,G)62-SM-152,PAR,SIG,,MXW,EXP) For
               energy range 3 keV - 225 keV obtained in this work
           (ASSUM3,62-SM-151(N,G)62-SM-152,PAR,SIG,,MXW,EVAL) For
               energy range 225 - 700 keV from REL-REF
STATUS      Data are taken from Table VIII of main reference
           (DEP,22916006)
           (DEP,22916008)
ERR-ANALYS (ERR-SYS) The systematic uncertainties of the mxw-
            cross sections are determined by the uncertainties of
            the measured cross section ratios in the interval I2
            as well as by the respective I1 and I3 contributions.
           (ERR-S) Statistical uncertainty is reported in table
           (ERR-T) Total error as reported in Table VIII.
             1.5% uncertainty of the gold cross section is not
             included, since it cancels out in most applications
             of relevance for nuclear astrophysics.
ENDBIB              32
NOCOMMON             0          0
DATA                11         14
KT         DATA       ERR-S      ERR-SYS    ERR-T      ASSUM1
ASSUM1-ERR ASSUM2     ASSUM2-ERR ASSUM3     ASSUM3-ERR
KEV        MB         MB         MB         MB         MB
MB         MB         MB         MB         MB
         8.      7028.       214.       189.       285.     1384.
     134.       5644.      203.       0.
        10.      6082.       157.       147.       215.      923.
      92.       5159.      150.       0.
        15.      4704.        88.        99.       132.      434.
      43.       4270.       85.       0.
        20.      3925.        59.        79.        99.      251.
      25.       3674.       58.       0.1
        25.      3407.        45.        67.        81.      163.
      16.       3243.       44.       0.8
        30.      3031.        36.        59.        69.      115.
      12.       2913.       35.       3.1        0.1
        40.      2510.        26.        48.        55.       65.5
      7.        2429.       26.      15.0        0.4
        50.      2158.        21.        41.        46.       42.3
      4.        2079.       21.      36.6        1.0
        52.      2101.        20.        40.        45.       39.1
      4.        2020.       20.      41.7        1.2
        60.      1920.        18.        36.        40.       29.5
      3.        1807.       18.      83.8        2.5
        70.      1700.        16.        32.        36.       21.8
      2.        1586.       16.      92.3        2.9
        80.      1538.        15.        29.        33.       16.7
      2.        1402.       14.     119.         4.
        90.      1405.        14.        27.        30.       13.2
      1.        1248.       13.     143.         5.
       100.      1291.        12.        25.        28.       10.8
      1.        1117.       11.     164.         6.
ENDDATA             32
ENDSUBENT           69
ENDENTRY            10
