ENTRY            A1473   20251002   20251125   20251125       A128
SUBENT        A1473001   20251002   20251125   20251125       A128
BIB                 10         19
TITLE      Mechanism of the 7Li(p,alpha)4He reaction
AUTHOR     (N.Sarma,K.S.Jayaraman,C.K.Kumar)
INSTITUTE  (3INDTRM)
REFERENCE  (J,NP,44,205,1963)
FACILITY   (VDG,3INDTRM)
SAMPLE     The targets were made by evaporating natural lithium
           metal onto self-supporting carbon films of thickness
           about 20 ug/cm2. The target thickness was
           estimated by measuring the Coulomb scattering of
           protons in a forward direction at 2.0 MeV; the
           thickness used in the experiments was about 40 ug/cm2
METHOD     (PHD,BCINT)
DETECTOR   (SOLST) Two semiconductor detectors of the diffused
           P-Si type. 20 mm2 in area.
           Third detector was used as a monitor.
ERR-ANALYS (ERR-SYS,,5.) Systematic error
HISTORY    (19810607C) Compilation Produced by RFNC-VNIIEF Sarov
           (19990321U)CNPD: corrected 4-dig. year and lower cases.
           (20251002A) SD: Corrections in all Subents.
ENDBIB              19
NOCOMMON             0          0
ENDSUBENT           22
SUBENT        A1473002   20251002   20251125   20251125       A128
BIB                  4          6
REACTION   (3-LI-7(P,A)2-HE-4,,DA)
ERR-ANALYS (ERR-S) Statistical error
STATUS     (CURVE,,N.Sarma+,J,NP,44,205,1963) Figure 2
HISTORY    (20251002A) SD: SF9=EXP deleted from REACTION code.
           STATUS updated. EN-ERR->EN-ERR-DIG; DATA-ERR->ERR-S;
           ERR-DIG added.
ENDBIB               6
COMMON               1          3
EN-ERR-DIG
MEV
       0.01
ENDCOMMON            3
DATA                 5        412
ANG        EN         DATA       ERR-S      ERR-DIG
ADEG       MEV        MB/SR      MB/SR      MB/SR
        60.       2.85       2.08                  0.02
        60.       2.88       2.08       0.12       0.02
        60.       2.92       2.27                  0.02
        60.       2.93       2.22                  0.02
        60.       2.95       2.15                  0.02
        60.       2.96       2.19                  0.02
        60.       2.99       2.17                  0.02
        60.       3.01       2.22                  0.02
        60.       3.03       2.22                  0.02
        60.       3.06       2.41                  0.02
        60.       3.11       2.20       0.09       0.02
        60.       3.13       2.13                  0.02
        60.       3.16       2.11                  0.02
        60.       3.17       2.15                  0.02
        60.       3.20       2.01                  0.02
        60.       3.22       2.04                  0.02
        60.       3.23       1.94                  0.02
        60.       3.25       1.97                  0.02
        60.       3.27       1.92                  0.02
        60.       3.29       2.02                  0.02
        60.       3.31       1.92                  0.02
        60.       3.33       2.02                  0.02
        60.       3.34       1.92                  0.02
        60.       3.36       1.90                  0.02
        60.       3.38       1.81       0.09       0.02
        60.       3.42       1.78                  0.02
        60.       3.44       1.74                  0.02
        60.       3.46       1.72                  0.02
        60.       3.47       1.57                  0.02
        60.       3.49       1.48                  0.02
        60.       3.52       1.44                  0.02
        60.       3.54       1.39                  0.02
        60.       3.55       1.36                  0.02
        60.       3.57       1.39                  0.02
        60.       3.60       1.27                  0.02
        60.       3.62       1.32                  0.02
        60.       3.64       1.23                  0.02
        60.       3.65       1.23                  0.02
        60.       3.66       1.13                  0.02
        60.       3.69       1.18                  0.02
        60.       3.71       1.21                  0.02
        60.       3.73       1.04                  0.02
        60.       3.74       1.14                  0.02
        60.       3.76       0.95                  0.02
        60.       3.79       0.93       0.09       0.02
        60.       3.82       0.93                  0.02
        60.       3.84       0.88                  0.02
        60.       3.85       0.76                  0.02
        60.       3.88       0.81                  0.02
        60.       3.91       0.86                  0.02
        60.       3.92       0.72                  0.02
        60.       3.95       0.72                  0.02
        60.       3.98       0.62                  0.02
        60.       3.98       0.58                  0.02
        60.       4.01       0.58                  0.02
        60.       4.03       0.63                  0.02
        60.       4.05       0.56                  0.02
        60.       4.06       0.48                  0.02
        60.       4.08       0.58                  0.02
        60.       4.10       0.49                  0.02
        60.       4.12       0.44                  0.02
        60.       4.17       0.49                  0.02
        60.       4.19       0.49                  0.02
        60.       4.21       0.44                  0.02
        60.       4.23       0.47                  0.02
        60.       4.24       0.40                  0.02
        60.       4.26       0.44                  0.02
        60.       4.28       0.40                  0.02
        60.       4.29       0.37                  0.02
        60.       4.32       0.38                  0.02
        60.       4.36       0.28                  0.02
        60.       4.38       0.28                  0.02
        60.       4.40       0.33                  0.02
        60.       4.41       0.26                  0.02
        60.       4.43       0.31                  0.02
        60.       4.45       0.28                  0.02
        60.       4.47       0.26                  0.02
        60.       4.49       0.29                  0.02
        60.       4.51       0.19                  0.02
        60.       4.51       0.24                  0.02
        60.       4.55       0.19                  0.02
        60.       4.56       0.17                  0.02
        60.       4.57       0.19                  0.02
        60.       4.59       0.24                  0.02
        60.       4.61       0.15                  0.02
        60.       4.63       0.17                  0.02
        60.       4.65       0.17                  0.02
        60.       4.67       0.15                  0.02
        60.       4.70       0.17                  0.02
        60.       4.72       0.17                  0.02
        60.       4.75       0.17                  0.02
        60.       4.77       0.18                  0.02
        60.       4.79       0.15                  0.02
        60.       4.80       0.15                  0.02
        60.       4.82       0.11                  0.02
        60.       4.85       0.15                  0.02
        60.       4.86       0.15                  0.02
        60.       4.88       0.15                  0.02
        60.       4.91       0.11                  0.02
        60.       4.92       0.18                  0.02
        60.       4.95       0.16                  0.02
        60.       4.96       0.20                  0.02
        60.       4.99       0.20                  0.02
        60.       5.00       0.23                  0.02
        60.       5.02       0.23                  0.02
        60.       5.04       0.23                  0.02
        60.       5.06       0.21                  0.02
        60.       5.08       0.26                  0.02
        60.       5.09       0.30                  0.02
        60.       5.11       0.33                  0.02
        60.       5.14       0.30                  0.02
        60.       5.15       0.40                  0.02
        60.       5.17       0.45                  0.02
        60.       5.19       0.42                  0.02
        60.       5.21       0.40                  0.02
        60.       5.23       0.49                  0.02
        60.       5.26       0.49                  0.02
        60.       5.27       0.59                  0.02
        60.       5.28       0.64                  0.02
        60.       5.30       0.71                  0.02
        60.       5.33       0.66                  0.02
        60.       5.34       0.73                  0.02
        60.       5.36       0.76       0.09       0.02
        60.       5.41       0.83                  0.02
        60.       5.47       0.93                  0.02
        80.       2.86       1.84                  0.02
        80.       2.88       1.98                  0.02
        80.       2.89       1.79                  0.02
        80.       2.90       1.86                  0.02
        80.       2.92       2.00                  0.02
        80.       2.93       2.05                  0.02
        80.       2.96       2.14                  0.02
        80.       2.98       2.19                  0.02
        80.       3.00       2.03                  0.02
        80.       3.02       2.19       0.09       0.02
        80.       3.04       2.44                  0.02
        80.       3.06       2.56                  0.02
        80.       3.07       2.35                  0.02
        80.       3.09       2.42       0.12       0.02
        80.       3.12       2.44                  0.02
        80.       3.13       2.28                  0.02
        80.       3.15       2.21                  0.02
        80.       3.16       2.28                  0.02
        80.       3.18       2.12                  0.02
        80.       3.23       2.01                  0.02
        80.       3.26       2.01                  0.02
        80.       3.29       1.85                  0.02
        80.       3.32       1.94       0.14       0.02
        80.       3.34       2.04                  0.02
        80.       3.36       1.88                  0.02
        80.       3.37       1.97                  0.02
        80.       3.39       1.95                  0.02
        80.       3.40       1.95                  0.02
        80.       3.42       1.81                  0.02
        80.       3.44       1.90                  0.02
        80.       3.46       1.70                  0.02
        80.       3.48       1.67                  0.02
        80.       3.50       1.76                  0.02
        80.       3.52       1.60                  0.02
        80.       3.54       1.54       0.12       0.02
        80.       3.57       1.56                  0.02
        80.       3.60       1.47                  0.02
        80.       3.60       1.35                  0.02
        80.       3.63       1.49                  0.02
        80.       3.64       1.43                  0.02
        80.       3.66       1.33                  0.02
        80.       3.69       1.38       0.11       0.02
        80.       3.71       1.29                  0.02
        80.       3.71       1.18                  0.02
        80.       3.74       1.24                  0.02
        80.       3.76       0.95                  0.02
        80.       3.77       1.02                  0.02
        80.       3.79       0.95                  0.02
        80.       3.82       0.88                  0.02
        80.       3.85       0.90       0.07       0.02
        80.       3.87       0.83                  0.02
        80.       3.89       0.79                  0.02
        80.       3.91       0.72                  0.02
        80.       3.93       0.77                  0.02
        80.       3.95       0.79                  0.02
        80.       3.96       0.65                  0.02
        80.       3.98       0.59                  0.02
        80.       4.00       0.54                  0.02
        80.       4.01       0.66                  0.02
        80.       4.03       0.56                  0.02
        80.       4.06       0.56                  0.02
        80.       4.08       0.59                  0.02
        80.       4.09       0.54                  0.02
        80.       4.11       0.64                  0.02
        80.       4.13       0.57                  0.02
        80.       4.15       0.57                  0.02
        80.       4.17       0.59                  0.02
        80.       4.19       0.57                  0.02
        80.       4.21       0.55                  0.02
        80.       4.23       0.50                  0.02
        80.       4.25       0.46                  0.02
        80.       4.27       0.50                  0.02
        80.       4.28       0.41                  0.02
        80.       4.30       0.46                  0.02
        80.       4.32       0.34                  0.02
        80.       4.33       0.41                  0.02
        80.       4.36       0.39                  0.02
        80.       4.37       0.32                  0.02
        80.       4.40       0.37                  0.02
        80.       4.41       0.30                  0.02
        80.       4.44       0.30                  0.02
        80.       4.44       0.21                  0.02
        80.       4.45       0.25                  0.02
        80.       4.48       0.21                  0.02
        80.       4.50       0.19                  0.02
        80.       4.52       0.23                  0.02
        80.       4.53       0.19                  0.02
        80.       4.56       0.19                  0.02
        80.       4.58       0.17                  0.02
        80.       4.60       0.17                  0.02
        80.       4.65       0.19                  0.02
        80.       4.67       0.10                  0.02
        80.       4.70       0.10                  0.02
        80.       4.71       0.17                  0.02
        80.       4.73       0.10                  0.02
        80.       4.75       0.10                  0.02
        80.       4.76       0.13                  0.02
        80.       4.78       0.13                  0.02
        80.       4.80       0.13                  0.02
        80.       4.82       0.10                  0.02
        80.       4.85       0.10                  0.02
        80.       4.87       0.08                  0.02
        80.       4.89       0.11                  0.02
        80.       4.91       0.11                  0.02
        80.       4.94       0.11                  0.02
        80.       4.95       0.15                  0.02
        80.       4.96       0.15                  0.02
        80.       4.96       0.20                  0.02
        80.       4.99       0.13                  0.02
        80.       5.02       0.15                  0.02
        80.       5.03       0.25                  0.02
        80.       5.05       0.23                  0.02
        80.       5.07       0.27                  0.02
        80.       5.08       0.27                  0.02
        80.       5.09       0.29                  0.02
        80.       5.12       0.39                  0.02
        80.       5.14       0.46                  0.02
        80.       5.14       0.36                  0.02
        80.       5.17       0.43                  0.02
        80.       5.19       0.50                  0.02
        80.       5.21       0.67                  0.02
        80.       5.23       0.67                  0.02
        80.       5.24       0.73                  0.02
        80.       5.27       0.71                  0.02
        80.       5.28       0.78                  0.02
        80.       5.30       0.87                  0.02
        80.       5.33       0.83                  0.02
        80.       5.34       0.99                  0.02
        80.       5.36       1.13                  0.02
        80.       5.37       1.22                  0.02
        80.       5.40       1.20                  0.02
       100.       2.86       2.56       0.09       0.02
       100.       2.88       2.63                  0.02
       100.       2.89       2.54                  0.02
       100.       2.92       2.63       0.14       0.02
       100.       2.94       2.68                  0.02
       100.       2.96       2.77                  0.02
       100.       2.98       2.82                  0.02
       100.       3.00       2.82                  0.02
       100.       3.01       2.73                  0.02
       100.       3.03       2.71                  0.02
       100.       3.06       2.66                  0.02
       100.       3.09       2.61                  0.02
       100.       3.11       2.71                  0.02
       100.       3.14       2.75       0.14       0.02
       100.       3.17       2.66                  0.02
       100.       3.18       2.59                  0.02
       100.       3.20       2.54                  0.02
       100.       3.21       2.26                  0.02
       100.       3.24       2.48                  0.02
       100.       3.25       2.38                  0.02
       100.       3.28       2.45                  0.02
       100.       3.29       2.29                  0.02
       100.       3.31       2.24       0.12       0.02
       100.       3.33       2.31                  0.02
       100.       3.34       2.20                  0.02
       100.       3.37       2.25                  0.02
       100.       3.39       1.97                  0.02
       100.       3.40       2.13                  0.02
       100.       3.41       1.99                  0.02
       100.       3.43       2.06                  0.02
       100.       3.46       2.01                  0.02
       100.       3.47       1.92                  0.02
       100.       3.49       1.83                  0.02
       100.       3.51       1.83       0.12       0.02
       100.       3.53       1.71                  0.02
       100.       3.56       1.76                  0.02
       100.       3.56       1.64                  0.02
       100.       3.56       1.62                  0.02
       100.       3.58       1.67                  0.02
       100.       3.60       1.62                  0.02
       100.       3.62       1.46                  0.02
       100.       3.63       1.39                  0.02
       100.       3.65       1.48                  0.02
       100.       3.69       1.41                  0.02
       100.       3.71       1.15                  0.02
       100.       3.73       1.29                  0.02
       100.       3.75       1.36                  0.02
       100.       3.77       1.18                  0.02
       100.       3.79       1.13                  0.02
       100.       3.81       1.13                  0.02
       100.       3.83       1.16                  0.02
       100.       3.85       1.02                  0.02
       100.       3.87       0.97                  0.02
       100.       3.90       0.92                  0.02
       100.       3.92       0.88       0.12       0.02
       100.       3.94       0.90                  0.02
       100.       3.96       0.83                  0.02
       100.       3.98       0.79                  0.02
       100.       4.00       0.72                  0.02
       100.       4.01       0.65                  0.02
       100.       4.04       0.76                  0.02
       100.       4.04       0.55                  0.02
       100.       4.08       0.65                  0.02
       100.       4.09       0.58                  0.02
       100.       4.11       0.56                  0.02
       100.       4.14       0.60                  0.02
       100.       4.14       0.46                  0.02
       100.       4.17       0.56                  0.02
       100.       4.21       0.25                  0.02
       100.       4.24       0.40                  0.02
       100.       4.25       0.42                  0.02
       100.       4.27       0.35                  0.02
       100.       4.29       0.42                  0.02
       100.       4.30       0.37                  0.02
       100.       4.32       0.35                  0.02
       100.       4.34       0.28                  0.02
       100.       4.36       0.40                  0.02
       100.       4.37       0.30                  0.02
       100.       4.38       0.23                  0.02
       100.       4.41       0.28                  0.02
       100.       4.43       0.17                  0.02
       100.       4.45       0.28                  0.02
       100.       4.46       0.12                  0.02
       100.       4.48       0.24                  0.02
       100.       4.50       0.19                  0.02
       100.       4.52       0.12                  0.02
       100.       4.54       0.19                  0.02
       100.       4.55       0.17                  0.02
       100.       4.57       0.19                  0.02
       100.       4.59       0.12                  0.02
       100.       4.61       0.10                  0.02
       100.       4.63       0.12                  0.02
       100.       4.64       0.13                  0.02
       100.       4.65       0.08                  0.02
       100.       4.67       0.08                  0.02
       100.       4.68       0.13                  0.02
       100.       4.71       0.10                  0.02
       100.       4.72       0.06                  0.02
       100.       4.73       0.10                  0.02
       100.       4.75       0.06                  0.02
       100.       4.77       0.10                  0.02
       100.       4.80       0.08                  0.02
       100.       4.81       0.04                  0.02
       100.       4.83       0.08                  0.02
       100.       4.86       0.11                  0.02
       100.       4.87       0.13                  0.02
       100.       4.89       0.06                  0.02
       100.       4.91       0.06                  0.02
       100.       4.93       0.11                  0.02
       100.       4.95       0.11                  0.02
       100.       4.96       0.06                  0.02
       100.       4.98       0.11                  0.02
       100.       5.01       0.14                  0.02
       100.       5.02       0.20                  0.02
       100.       5.04       0.18                  0.02
       100.       5.06       0.14                  0.02
       100.       5.08       0.21                  0.02
       100.       5.10       0.26                  0.02
       100.       5.12       0.26                  0.02
       100.       5.13       0.28                  0.02
       100.       5.14       0.37                  0.02
       100.       5.17       0.42                  0.02
       100.       5.19       0.45                  0.02
       100.       5.20       0.49                  0.02
       100.       5.22       0.42                  0.02
       100.       5.25       0.49                  0.02
       100.       5.26       0.61                  0.02
       100.       5.28       0.66                  0.02
       100.       5.29       0.73                  0.02
       100.       5.31       0.80                  0.02
       100.       5.33       0.75                  0.02
       100.       5.36       0.85       0.09       0.02
       100.       5.37       0.92                  0.02
       100.       5.40       0.94                  0.02
       150.       4.05      0.261      0.021      0.005
       150.       4.11      0.246                 0.005
       150.       4.16      0.241      0.021      0.005
       150.       4.22      0.236                 0.005
       150.       4.27      0.241                 0.005
       150.       4.35      0.226                 0.005
       150.       4.39      0.147                 0.005
       150.       4.45      0.195                 0.005
       150.       4.57      0.185                 0.005
       150.       4.62      0.165                 0.005
       150.       4.68      0.181                 0.005
       150.       4.72      0.202      0.021      0.005
       150.       4.78      0.203                 0.005
       150.       4.83      0.187                 0.005
       150.       4.88      0.177                 0.005
       150.       4.96      0.172                 0.005
       150.       5.00      0.188                 0.005
       150.       5.06      0.157                 0.005
       150.       5.13      0.184                 0.005
       150.       5.17      0.131                 0.005
       150.       5.24      0.158                 0.005
       150.       5.29      0.148                 0.005
ENDDATA            414
ENDSUBENT          429
SUBENT        A1473003   20251002   20251125   20251125       A128
BIB                  4          6
REACTION   (3-LI-7(P,A)2-HE-4,,DA)
ERR-ANALYS (ERR-S) Statistical error
STATUS     (CURVE,,N.Sarma+,J,NP,44,205,1963) Figure 3
HISTORY    (20251002A) SD: SF9=EXP deleted from REACTION code.
           STATUS updated. ANG-ERR->ANG-ERR-D; DATA-ERR->ERR-S;
           ERR-DIG added.
ENDBIB               6
COMMON               1          3
ANG-ERR-D
ADEG
  1.0
ENDCOMMON            3
DATA                 5         97
EN         ANG-CM     DATA-CM    ERR-S      ERR-DIG
MEV        ADEG       MB/SR      MB/SR      MB/SR
         3.      22.76      1.406      0.028      0.009
         3.      33.86      1.563      0.056      0.009
         3.      44.26      1.645      0.009      0.009
         3.      56.34      1.810      0.057      0.009
         3.      67.34      1.939      0.037      0.009
         3.      77.84      2.039      0.047      0.009
         3.      88.16      2.046      0.056      0.009
         3.      103.7      1.845      0.047      0.009
         3.      108.2      1.787      0.047      0.009
         3.       119.      1.813      0.047      0.009
         3.      127.6      1.670      0.037      0.009
         3.      135.9      1.592      0.056      0.009
         3.       145.      1.440      0.037      0.009
         3.      153.2      1.344      0.037      0.009
         3.      162.5      1.332      0.037      0.009
         3.      167.1      1.284      0.028      0.009
        3.5      26.96      0.584      0.037      0.009
        3.5      38.05      0.748      0.037      0.009
        3.5      50.07      0.912      0.037      0.009
        3.5      60.75      1.105      0.037      0.009
        3.5      71.87      1.288      0.028      0.009
        3.5      81.81      1.341      0.037      0.009
        3.5      92.13      1.357      0.028      0.009
        3.5      101.3      1.280      0.037      0.009
        3.5      111.4      1.175      0.037      0.009
        3.5      121.5      1.071      0.037      0.009
        3.5      130.5      0.901      0.037      0.009
        3.5      140.1      0.787      0.028      0.009
        3.5      148.1      0.571      0.037      0.009
        3.5      156.8      0.475                 0.009
        3.5      165.1      0.445                 0.009
         4.      27.36      0.220                 0.005
         4.      38.87      0.290                 0.005
         4.      49.34      0.336                 0.005
         4.       58.9      0.387                 0.005
         4.      70.32      0.438                 0.005
         4.      82.59      0.456      0.019      0.005
         4.      87.32      0.465      0.024      0.005
         4.      97.55      0.454      0.014      0.005
         4.      107.7      0.424      0.014      0.005
         4.      112.7      0.380      0.019      0.005
         4.      130.7      0.326      0.019      0.005
         4.      139.4      0.267      0.014      0.005
         4.      148.1      0.233                 0.005
         4.      157.4      0.227                 0.005
         4.      165.7      0.178                 0.005
        4.5      40.07     0.1995     0.0038     0.0009
        4.5      52.48     0.1645     0.0047     0.0009
        4.5      63.26     0.1416     0.0047     0.0009
        4.5      73.25     0.1263     0.0047     0.0009
        4.5      94.21     0.0976     0.0056     0.0009
        4.5      103.7     0.1067     0.0047     0.0009
        4.5      114.4     0.1281     0.0028     0.0009
        4.5       123.     0.1325     0.0038     0.0009
        4.5      132.9     0.1633     0.0037     0.0009
        4.5      141.9     0.1931     0.0047     0.0009
        4.5      149.8     0.2117     0.0047     0.0009
        4.5      159.7     0.1945     0.0037     0.0009
        4.8      19.68     0.0860                0.0014
        4.8      32.91     0.0817                0.0014
        4.8      51.19     0.0572                0.0014
        4.8      66.85     0.0354                0.0014
        4.8      75.99     0.0231                0.0014
        4.8      87.77     0.0095                0.0014
        4.8      106.6     0.0254                0.0014
        4.8      114.7     0.0388                0.0014
        4.8      125.7     0.0630                0.0014
        4.8      137.9     0.0830                0.0014
        4.8      152.7     0.0977                0.0014
        4.8      159.1     0.0841                0.0014
        4.8      170.9     0.1717     0.0081     0.0014
         5.      21.47     0.0843                0.0009
         5.      33.68     0.0868                0.0009
         5.      44.84     0.1052     0.0037     0.0009
         5.      57.03     0.1067     0.0038     0.0009
         5.      67.94     0.1139     0.0037     0.0009
         5.      78.96     0.1276     0.0028     0.0009
         5.      88.97     0.1358     0.0056     0.0009
         5.      99.13     0.1299     0.0037     0.0009
         5.      110.3     0.1053     0.0038     0.0009
         5.      119.3     0.1079     0.0028     0.0009
         5.       129.     0.1021     0.0037     0.0009
         5.      147.3     0.1053     0.0028     0.0009
         5.      155.2     0.0799                0.0009
         5.      165.3     0.0741                0.0009
        5.5      35.08      0.289                 0.009
        5.5      47.49      0.416                 0.009
        5.5      58.04      0.543                 0.009
        5.5      69.54      0.679                 0.009
        5.5      80.03      0.779                 0.009
        5.5      89.53      0.851                 0.009
        5.5      108.9      0.697                 0.009
        5.5      119.9      0.620                 0.009
        5.5       130.      0.506                 0.009
        5.5      139.1      0.401                 0.009
        5.5      148.3      0.306                 0.009
        5.5      155.7      0.239                 0.009
ENDDATA             99
ENDSUBENT          114
SUBENT        A1473004   20251002   20251125   20251125       A128
BIB                  4         10
REACTION   (3-LI-7(P,A)2-HE-4,,SIG)
ANALYSIS   (INTAD) The total cross section for the reaction,
           calculated from the excitation function at 60. degr.
           and the angular distributions.
STATUS     (CURVE,,N.Sarma+,J,NP,44,205,1963) Figure 4
           (DEP,A1473002) excitation function at 60. degr.
           (DEP,A1473003) Angl. distributions
HISTORY    (20251002A) SD: SF9=CALC deleted from REACTION code.
           STATUS updated. EN-ERR->EN-ERR-DIG; DATA-ERR->ERR-DIG.
           COMMENT -> ANALYSIS.
ENDBIB              10
COMMON               2          3
EN-ERR-DIG ERR-DIG
MEV        MB
   0.01        0.1
ENDCOMMON            3
DATA                 2         50
EN         DATA
MEV        MB
       3.00       20.5
       3.04       19.9
       3.09       19.2
       3.13       18.6
       3.18       18.0
       3.22       17.3
       3.28       16.4
       3.33       15.6
       3.38       14.8
       3.41       13.9
       3.47       13.1
       3.51       12.2
       3.56       11.3
       3.59       10.7
       3.64        9.9
       3.67        9.2
       3.72        8.4
       3.77        7.6
       3.80        7.0
       3.85        6.3
       3.89        5.6
       3.96        4.9
       4.00        4.4
       4.04        3.9
       4.11        3.3
       4.17        2.9
       4.23        2.5
       4.30        1.9
       4.40        1.5
       4.50        1.1
       4.59        0.8
       4.67        0.5
       4.75        0.3
       4.81        0.2
       4.87        0.4
       4.92        0.6
       4.98        0.9
       5.01        1.4
       5.07        1.8
       5.11        2.2
       5.14        2.7
       5.21        3.3
       5.24        3.8
       5.30        4.2
       5.33        4.6
       5.38        5.1
       5.41        5.5
       5.45        5.9
       5.47        6.2
       5.49        6.6
ENDDATA             52
ENDSUBENT           71
SUBENT        A1473005   20251002   20251125   20251125       A128
BIB                  4          5
REACTION   (3-LI-7(P,A)2-HE-4,,DA,,LEG/RS)
ERR-ANALYS (ERR-S) Statistical error
STATUS     (CURVE,,N.Sarma+,J,NP,44,205,1963) Figure 5
HISTORY    (20251002A) SD: SF9=EXP deleted from REACTION code.
           STATUS updated. EN-ERR->EN-ERR-DIG; DATA-ERR->ERR-S.
ENDBIB               5
COMMON               1          3
EN-ERR-DIG
MEV
 0.007
ENDCOMMON            3
DATA                 4         28
NUMBER     EN         DATA-CM    ERR-S
NO-DIM     MEV        NO-DIM     NO-DIM
         2.      3.006     -0.285      0.035
         2.      3.493     -0.616      0.090
         2.      3.993     -0.530      0.028
         2.      4.479      0.537      0.076
         2.      4.858      1.242      0.097
         2.      4.998     -0.316      0.042
         2.      5.493     -0.849      0.028
         4.      2.993     -0.007      0.021
         4.      3.478      0.100      0.125
         4.      3.988      0.026      0.035
         4.      4.488     -0.082      0.083
         4.      4.871     -0.442      0.146
         4.      4.987      0.046      0.049
         4.      5.486      0.160      0.042
         6.      2.990     -0.028      0.035
         6.      3.491     -0.060      0.118
         6.      4.010     -0.015      0.028
         6.      4.507      0.015      0.097
         6.      4.848     -0.198      0.195
         6.      4.988     -0.184      0.056
         6.      5.451     -0.028      0.084
         8.      2.993      0.021      0.028
         8.      3.517      0.038      0.111
         8.      3.962     -0.022      0.035
         8.      4.474      0.078      0.090
         8.      4.860     -0.024      0.028
         8.      4.995     -0.876      0.035
         8.      5.497      0.016      0.035
ENDDATA             30
ENDSUBENT           44
ENDENTRY             5
